ms,adc
14,2054
18,2059
22,1968
26,1935
30,2021
34,2170
38,2203
42,2179
46,2113
50,2081
54,2089
58,2021
62,1917
66,1837
70,1854
74,1907
78,1885
82,1797
86,1749
90,1776
94,1853
98,1834
102,1762
106,1715
110,1750
114,1828
118,1822
122,1762
126,1712
130,1738
134,1812
138,1794
142,1727
146,1705
150,1737
154,1776
158,1663
162,1469
166,1341
170,1328
174,1387
178,1781
182,2443
186,3307
190,4095
194,4095
198,4095
202,3687
206,2608
210,1926
214,1657
218,1535
222,1535
226,1632
230,1701
234,1729
238,1675
242,1593
246,1557
250,1597
254,1644
258,1631
262,1571
266,1566
270,1594
274,1634
278,1620
282,1559
286,1535
290,1600
294,1685
298,1659
302,1568
306,1552
310,1612
314,1677
318,1664
322,1602
326,1595
330,1637
334,1702
338,1679
342,1616
346,1613
350,1661
354,1713
358,1691
362,1616
366,1599
370,1648
374,1703
378,1679
382,1613
386,1600
390,1659
394,1706
398,1679
402,1600
406,1584
410,1676
414,1718
418,1679
422,1619
426,1622
430,1695
434,1756
438,1748
442,1690
446,1710
450,1794
454,1858
458,1843
462,1799
466,1840
470,1899
474,1938
478,1907
482,1835
486,1839
490,1910
494,1953
498,1920
502,1838
506,1830
510,1889
514,1919
518,1878
522,1819
526,1816
530,1876
534,1907
538,1882
542,1822
546,1822
550,1875
554,1909
558,1870
562,1808
566,1825
570,1897
574,1926
578,1859
582,1792
586,1819
590,1899
594,1912
598,1862
602,1795
606,1808
610,1879
614,1906
618,1872
622,1808
626,1819
630,1893
634,1917
638,1875
642,1813
646,1815
650,1884
654,1905
658,1869
662,1805
666,1809
670,1889
674,1906
678,1855
682,1795
686,1807
690,1873
694,1888
698,1847
702,1791
706,1803
710,1872
714,1883
718,1840
722,1792
726,1798
730,1872
734,1894
738,1841
742,1788
746,1798
750,1869
754,1883
758,1837
762,1780
766,1794
770,1872
774,1890
778,1840
782,1780
786,1801
790,1872
794,1883
798,1842
802,1792
806,1805
810,1872
814,1874
818,1831
822,1783
826,1804
830,1874
834,1879
838,1819
842,1770
846,1791
850,1867
854,1870
858,1813
862,1770
866,1788
870,1857
874,1861
878,1811
882,1769
886,1791
890,1869
894,1872
898,1808
902,1767
906,1804
910,1888
914,1872
918,1808
922,1765
926,1794
930,1863
934,1863
938,1804
942,1771
946,1806
950,1884
954,1872
958,1793
962,1743
966,1783
970,1873
974,1872
978,1786
982,1750
986,1791
990,1887
994,1890
998,1821
1002,1810
1006,1897
1010,1997
1014,1996
1018,1909
1022,1877
1026,1974
1030,2128
1034,2158
1038,2110
1042,2053
1046,2038
1050,2064
1054,1991
1058,1870
1062,1795
1066,1809
1070,1867
1074,1840
1078,1756
1082,1712
1086,1742
1090,1799
1094,1792
1098,1716
1102,1686
1106,1713
1110,1781
1114,1761
1118,1683
1122,1666
1126,1717
1130,1788
1134,1776
1138,1698
1142,1671
1146,1701
1150,1711
1154,1595
1158,1407
1162,1315
1166,1331
1170,1482
1174,1927
1178,2554
1182,3440
1186,4095
1190,4095
1194,3869
1198,2843
1202,2106
1206,1766
1210,1693
1214,1633
1218,1567
1222,1579
1226,1646
1230,1698
1234,1657
1238,1565
1242,1521
1246,1566
1250,1625
1254,1610
1258,1525
1262,1515
1266,1569
1270,1637
1274,1620
1278,1554
1282,1535
1286,1615
1290,1662
1294,1616
1298,1535
1302,1535
1306,1613
1310,1660
1314,1644
1318,1584
1322,1601
1326,1670
1330,1691
1334,1653
1338,1580
1342,1593
1346,1651
1350,1701
1354,1673
1358,1607
1362,1599
1366,1663
1370,1712
1374,1662
1378,1589
1382,1602
1386,1662
1390,1699
1394,1669
1398,1595
1402,1598
1406,1673
1410,1722
1414,1709
1418,1641
1422,1670
1426,1734
1430,1790
1434,1759
1438,1703
1442,1734
1446,1820
1450,1871
1454,1843
1458,1793
1462,1808
1466,1847
1470,1871
1474,1840
1478,1795
1482,1801
1486,1857
1490,1889
1494,1859
1498,1795
1502,1797
1506,1860
1510,1888
1514,1847
1518,1791
1522,1814
1526,1991
1530,2140
1534,2101
1538,2043
1542,2110
1546,2179
1550,2141
1554,2032
1558,2005
1562,2112
1566,2203
1570,2141
1574,2032
1578,1990
1582,2086
1586,2179
1590,2130
1594,2033
1598,2002
1602,2083
1606,2171
1610,2118
1614,2003
1618,1975
1622,2069
1626,2169
1630,2110
1634,1987
1638,1968
1642,2069
1646,2160
1650,2097
1654,1984
1658,1962
1662,2057
1666,2151
1670,2087
1674,1975
1678,1965
1682,2044
1686,2144
1690,2077
1694,1962
1698,1950
1702,2037
1706,2132
1710,2062
1714,1952
1718,1939
1722,2032
1726,2126
1730,2033
1734,1921
1738,1931
1742,2015
1746,2098
1750,2014
1754,1915
1758,1917
1762,2004
1766,2094
1770,2000
1774,1894
1778,1904
1782,1989
1786,2078
1790,1987
1794,1877
1798,1885
1802,1972
1806,2061
1810,1969
1814,1866
1818,1888
1822,1972
1826,2035
1830,1942
1834,1852
1838,1883
1842,1990
1846,2100
1850,2055
1854,1979
1858,2018
1862,2105
1866,2167
1870,2111
1874,2095
1878,2172
1882,2272
1886,2331
1890,2174
1894,2023
1898,2011
1902,2058
1906,2064
1910,1925
1914,1799
1918,1818
1922,1887
1926,1930
1930,1823
1934,1715
1938,1737
1942,1818
1946,1878
1950,1791
1954,1694
1958,1723
1962,1808
1966,1868
1970,1757
1974,1663
1978,1715
1982,1801
1986,1842
1990,1745
1994,1646
1998,1629
2002,1602
2006,1535
2010,1386
2014,1250
2018,1391
2022,2030
2026,2865
2030,3846
2034,4095
2038,4095
2042,4095
2046,3088
2050,2144
2054,1599
2058,1494
2062,1597
2066,1718
2070,1683
2074,1602
2078,1634
2082,1677
2086,1681
2090,1573
2094,1482
2098,1563
2102,1657
2106,1676
2110,1574
2114,1479
2118,1535
2122,1647
2126,1673
2130,1579
2134,1479
2138,1552
2142,1657
2146,1686
2150,1590
2154,1504
2158,1584
2162,1677
2166,1701
2170,1601
2174,1517
2178,1597
2182,1693
2186,1712
2190,1615
2194,1523
2198,1603
2202,1698
2206,1711
2210,1603
2214,1531
2218,1614
2222,1691
2226,1689
2230,1584
2234,1499
2238,1584
2242,1680
2246,1684
2250,1584
2254,1509
2258,1600
2262,1707
2266,1706
2270,1609
2274,1534
2278,1633
2282,1753
2286,1767
2290,1685
2294,1632
2298,1742
2302,1857
2306,1869
2310,1783
2314,1713
2318,1809
2322,1915
2326,1897
2330,1793
2334,1733
2338,1809
2342,1906
2346,1885
2350,1776
2354,1713
2358,1797
2362,1886
2366,1860
2370,1753
2374,1700
2378,1788
2382,1878
2386,1850
2390,1749
2394,1699
2398,1797
2402,1904
2406,1866
2410,1747
2414,1693
2418,1790
2422,1897
2426,1855
2430,1747
2434,1701
2438,1798
2442,1891
2446,1847
2450,1747
2454,1719
2458,1824
2462,1915
2466,1856
2470,1745
2474,1712
2478,1805
2482,1904
2486,1856
2490,1742
2494,1712
2498,1807
2502,1901
2506,1846
2510,1744
2514,1707
2518,1806
2522,1895
2526,1843
2530,1745
2534,1719
2538,1812
2542,1905
2546,1844
2550,1744
2554,1725
2558,1820
2562,1901
2566,1833
2570,1730
2574,1718
2578,1818
2582,1915
2586,1844
2590,1738
2594,1725
2598,1819
2602,1902
2606,1827
2610,1727
2614,1722
2618,1815
2622,1913
2626,1843
2630,1731
2634,1724
2638,1821
2642,1909
2646,1840
2650,1728
2654,1742
2658,1825
2662,1904
2666,1821
2670,1723
2674,1733
2678,1831
2682,1911
2686,1827
2690,1722
2694,1734
2698,1834
2702,1906
2706,1809
2710,1702
2714,1717
2718,1817
2722,1904
2726,1819
2730,1718
2734,1739
2738,1825
2742,1907
2746,1827
2750,1721
2754,1760
2758,1835
2762,1901
2766,1807
2770,1713
2774,1742
2778,1833
2782,1905
2786,1810
2790,1711
2794,1742
2798,1831
2802,1910
2806,1812
2810,1710
2814,1737
2818,1826
2822,1902
2826,1808
2830,1712
2834,1751
2838,1867
2842,1979
2846,1932
2850,1851
2854,1895
2858,1979
2862,2064
2866,2021
2870,1987
2874,2056
2878,2147
2882,2186
2886,2058
2890,1904
2894,1890
2898,1925
2902,1936
2906,1810
2910,1699
2914,1744
2918,1815
2922,1845
2926,1737
2930,1632
2934,1675
2938,1774
2942,1825
2946,1721
2950,1627
2954,1673
2958,1745
2962,1795
2966,1693
2970,1613
2974,1668
2978,1763
2982,1819
2986,1715
2990,1556
2994,1477
2998,1462
3002,1451
3006,1299
3010,1317
3014,1926
3018,2752
3022,3825
3026,4095
3030,4095
3034,3733
3038,2838
3042,2145
3046,1682
3050,1473
3054,1520
3058,1665
3062,1753
3066,1655
3070,1534
3074,1563
3078,1632
3082,1655
3086,1554
3090,1469
3094,1535
3098,1647
3102,1657
3106,1535
3110,1456
3114,1535
3118,1648
3122,1680
3126,1578
3130,1483
3134,1569
3138,1667
3142,1685
3146,1599
3150,1520
3154,1593
3158,1694
3162,1707
3166,1616
3170,1531
3174,1614
3178,1703
3182,1703
3186,1603
3190,1535
3194,1627
3198,1715
3202,1701
3206,1600
3210,1527
3214,1617
3218,1706
3222,1691
3226,1595
3230,1531
3234,1618
3238,1718
3242,1706
3246,1594
3250,1535
3254,1648
3258,1767
3262,1777
3266,1682
3270,1627
3274,1711
3278,1825
3282,1828
3286,1744
3290,1707
3294,1818
3298,1947
3302,1949
3306,1839
3310,1779
3314,1870
3318,1973
3322,1950
3326,1845
3330,1785
3334,1862
3338,1954
3342,1912
3346,1802
3350,1758
3354,1840
3358,1930
3362,1904
3366,1808
3370,1766
3374,1855
3378,1936
3382,1895
3386,1792
3390,1744
3394,1840
3398,1937
3402,1895
3406,1798
3410,1775
3414,1869
3418,1950
3422,1895
3426,1786
3430,1745
3434,1842
3438,1946
3442,1902
3446,1799
3450,1780
3454,1875
3458,1953
3462,1886
3466,1781
3470,1777
3474,1887
3478,1957
3482,1882
3486,1781
3490,1776
3494,1876
3498,1970
3502,1906
3506,1802
3510,1781
3514,1877
3518,1968
3522,1904
3526,1797
3530,1786
3534,1875
3538,1945
3542,1903
3546,1791
3550,1786
3554,1879
3558,1968
3562,1893
3566,1798
3570,1783
3574,1872
3578,1947
3582,1873
3586,1782
3590,1789
3594,1891
3598,1978
3602,1869
3606,1774
3610,1789
3614,1882
3618,1963
3622,1877
3626,1767
3630,1779
3634,1874
3638,1955
3642,1872
3646,1774
3650,1790
3654,1883
3658,1957
3662,1872
3666,1774
3670,1783
3674,1873
3678,1952
3682,1877
3686,1776
3690,1796
3694,1889
3698,1962
3702,1872
3706,1770
3710,1795
3714,1889
3718,1961
3722,1868
3726,1771
3730,1803
3734,1887
3738,1952
3742,1872
3746,1805
3750,1875
3754,2009
3758,2096
3762,1998
3766,1904
3770,1968
3774,2115
3778,2243
3782,2169
3786,2064
3790,2073
3794,2128
3798,2133
3802,1983
3806,1834
3810,1841
3814,1904
3818,1935
3822,1815
3826,1712
3830,1754
3834,1840
3838,1873
3842,1763
3846,1677
3850,1723
3854,1804
3858,1847
3862,1746
3866,1666
3870,1717
3874,1810
3878,1851
3882,1733
3886,1644
3890,1703
3894,1792
3898,1809
3902,1616
3906,1413
3910,1391
3914,1429
3918,1424
3922,1557
3926,2119
3930,2991
3934,4095
3938,4095
3942,4095
3946,3545
3950,2625
3954,2003
3958,1748
3962,1535
3966,1487
3970,1617
3974,1753
3978,1767
3982,1630
3986,1523
3990,1585
3994,1670
3998,1697
4002,1587
4006,1506
4010,1584
4014,1674
4018,1699
4022,1601
4026,1517
4030,1591
4034,1691
4038,1710
4042,1600
4046,1526
4050,1613
4054,1707
4058,1722
4062,1622
4066,1558
4070,1635
4074,1744
4078,1744
4082,1639
4086,1558
4090,1646
4094,1744
4098,1754
4102,1656
4106,1589
4110,1669
4114,1751
4118,1744
4122,1643
4126,1570
4130,1656
4134,1755
4138,1744
4142,1625
4146,1566
4150,1658
4154,1758
4158,1758
4162,1655
4166,1596
4170,1687
4174,1789
4178,1787
4182,1699
4186,1653
4190,1747
4194,1855
4198,1855
4202,1776
4206,1742
4210,1845
4214,1951
4218,1936
4222,1833
4226,1776
4230,1866
4234,1966
4238,1936
4242,1818
4246,1760
4250,1843
4254,1932
4258,1897
4262,1792
4266,1733
4270,1819
4274,1919
4278,1887
4282,1787
4286,1742
4290,1825
4294,1919
4298,1883
4302,1776
4306,1741
4310,1830
4314,1919
4318,1883
4322,1776
4326,1734
4330,1824
4334,1920
4338,1879
4342,1776
4346,1735
4350,1827
4354,1917
4358,1872
4362,1773
4366,1733
4370,1823
4374,1917
4378,1871
4382,1763
4386,1729
4390,1813
4394,1909
4398,1867
4402,1764
4406,1739
4410,1830
4414,1920
4418,1870
4422,1766
4426,1736
4430,1832
4434,1921
4438,1867
4442,1761
4446,1744
4450,1831
4454,1920
4458,1858
4462,1755
4466,1738
4470,1827
4474,1920
4478,1856
4482,1750
4486,1734
4490,1824
4494,1910
4498,1841
4502,1747
4506,1741
4510,1825
4514,1913
4518,1842
4522,1744
4526,1738
4530,1826
4534,1909
4538,1840
4542,1739
4546,1731
4550,1824
4554,1910
4558,1839
4562,1743
4566,1739
4570,1826
4574,1910
4578,1845
4582,1744
4586,1739
4590,1819
4594,1903
4598,1833
4602,1744
4606,1754
4610,1840
4614,1914
4618,1834
4622,1733
4626,1757
4630,1850
4634,1930
4638,1839
4642,1733
4646,1755
4650,1857
4654,1922
4658,1838
4662,1736
4666,1763
4670,1850
4674,1922
4678,1838
4682,1745
4686,1774
4690,1853
4694,1923
4698,1830
4702,1731
4706,1775
4710,1859
4714,1917
4718,1824
4722,1734
4726,1776
4730,1856
4734,1920
4738,1819
4742,1726
4746,1767
4750,1858
4754,1921
4758,1829
4762,1744
4766,1782
4770,1885
4774,1961
4778,1907
4782,1866
4786,1938
4790,2022
4794,2059
4798,1968
4802,1943
4806,2066
4810,2192
4814,2262
4818,2132
4822,1987
4826,1953
4830,1987
4834,1989
4838,1852
4842,1749
4846,1790
4850,1859
4854,1885
4858,1765
4862,1665
4866,1715
4870,1805
4874,1840
4878,1733
4882,1639
4886,1691
4890,1782
4894,1828
4898,1719
4902,1627
4906,1691
4910,1789
4914,1823
4918,1713
4922,1601
4926,1581
4930,1557
4934,1494
4938,1344
4942,1231
4946,1573
4950,2316
4954,3160
4958,4095
4962,4095
4966,4095
4970,3481
4974,2557
4978,1873
4982,1520
4986,1401
4990,1469
4994,1603
4998,1607
5002,1501
5006,1441
5010,1463
5014,1513
5018,1472
5022,1392
5026,1374
5030,1440
5034,1499
5038,1463
5042,1378
5046,1371
5050,1447
5054,1500
5058,1465
5062,1396
5066,1403
5070,1455
5074,1510
5078,1489
5082,1421
5086,1415
5090,1481
5094,1533
5098,1505
5102,1435
5106,1425
5110,1491
5114,1535
5118,1535
5122,1461
5126,1446
5130,1503
5134,1559
5138,1533
5142,1459
5146,1456
5150,1520
5154,1568
5158,1525
5162,1450
5166,1455
5170,1527
5174,1581
5178,1535
5182,1478
5186,1489
5190,1577
5194,1639
5198,1616
5202,1535
5206,1566
5210,1646
5214,1699
5218,1694
5222,1648
5226,1669
5230,1758
5234,1822
5238,1803
5242,1728
5246,1731
5250,1802
5254,1851
5258,1836
5262,1744
5266,1728
5270,1777
5274,1813
5278,1779
5282,1713
5286,1722
5290,1779
5294,1808
5298,1763
5302,1680
5306,1712
5310,1796
5314,1839
5318,1797
5322,1730
5326,1739
5330,1821
5334,1856
5338,1823
5342,1760
5346,1765
5350,1840
5354,1872
5358,1843
5362,1777
5366,1776
5370,1855
5374,1890
5378,1846
5382,1787
5386,1802
5390,1873
5394,1908
5398,1867
5402,1803
5406,1814
5410,1887
5414,1910
5418,1872
5422,1825
5426,1840
5430,1909
5434,1922
5438,1873
5442,1818
5446,1835
5450,1917
5454,1936
5458,1878
5462,1835
5466,1875
5470,1964
5474,1979
5478,1905
5482,1838
5486,1835
5490,1899
5494,1900
5498,1839
5502,1776
5506,1795
5510,1863
5514,1874
5518,1825
5522,1778
5526,1804
5530,1883
5534,1895
5538,1843
5542,1798
5546,1815
5550,1898
5554,1907
5558,1854
5562,1798
5566,1814
5570,1891
5574,1902
5578,1843
5582,1778
5586,1797
5590,1879
5594,1902
5598,1849
5602,1799
5606,1824
5610,1904
5614,1909
5618,1853
5622,1808
5626,1831
5630,1907
5634,1913
5638,1849
5642,1807
5646,1833
5650,1914
5654,1917
5658,1856
5662,1798
5666,1839
5670,1918
5674,1920
5678,1859
5682,1814
5686,1854
5690,1927
5694,1921
5698,1860
5702,1819
5706,1853
5710,1969
5714,2007
5718,1983
5722,1962
5726,1985
5730,2065
5734,2091
5738,2105
5742,2128
5746,2160
5750,2234
5754,2190
5758,2081
5762,1990
5766,1964
5770,1971
5774,1929
5778,1843
5782,1801
5786,1823
5790,1872
5794,1845
5798,1773
5802,1734
5806,1767
5810,1834
5814,1819
5818,1756
5822,1724
5826,1759
5830,1826
5834,1811
5838,1745
5842,1718
5846,1759
5850,1824
5854,1806
5858,1712
5862,1617
5866,1535
5870,1511
5874,1433
5878,1323
5882,1423
5886,2033
5890,2889
5894,4056
5898,4095
5902,4095
5906,4003
5910,2980
5914,2159
5918,1681
5922,1534
5926,1586
5930,1725
5934,1767
5938,1698
5942,1644
5946,1656
5950,1701
5954,1675
5958,1598
5962,1583
5966,1626
5970,1679
5974,1661
5978,1591
5982,1575
5986,1623
5990,1687
5994,1671
5998,1605
6002,1598
6006,1655
6010,1711
6014,1680
6018,1607
6022,1599
6026,1662
6030,1726
6034,1712
6038,1643
6042,1632
6046,1685
6050,1740
6054,1713
6058,1648
6062,1639
6066,1698
6070,1748
6074,1728
6078,1654
6082,1639
6086,1693
6090,1743
6094,1714
6098,1635
6102,1641
6106,1698
6110,1741
6114,1712
6118,1644
6122,1646
6126,1707
6130,1754
6134,1732
6138,1679
6142,1690
6146,1770
6150,1825
6154,1815
6158,1770
6162,1798
6166,1882
6170,1943
6174,1924
6178,1869
6182,1865
6186,1930
6190,1962
6194,1936
6198,1870
6202,1866
6206,1921
6210,1953
6214,1906
6218,1823
6222,1824
6226,1889
6230,1918
6234,1883
6238,1808
6242,1826
6246,1887
6250,1919
6254,1879
6258,1826
6262,1835
6266,1888
6270,1914
6274,1872
6278,1808
6282,1813
6286,1881
6290,1913
6294,1872
6298,1809
6302,1821
6306,1893
6310,1918
6314,1881
6318,1819
6322,1822
6326,1891
6330,1906
6334,1862
6338,1804
6342,1814
6346,1885
6350,1907
6354,1871
6358,1807
6362,1813
6366,1879
6370,1899
6374,1856
6378,1803
6382,1810
6386,1879
6390,1902
6394,1849
6398,1791
6402,1803
6406,1874
6410,1903
6414,1847
6418,1795
6422,1809
6426,1877
6430,1883
6434,1838
6438,1783
6442,1803
6446,1872
6450,1880
6454,1838
6458,1785
6462,1802
6466,1874
6470,1895
6474,1845
6478,1783
6482,1792
6486,1870
6490,1885
6494,1840
6498,1790
6502,1808
6506,1883
6510,1888
6514,1835
6518,1781
6522,1798
6526,1871
6530,1878
6534,1827
6538,1783
6542,1808
6546,1883
6550,1882
6554,1827
6558,1782
6562,1803
6566,1873
6570,1877
6574,1822
6578,1771
6582,1793
6586,1867
6590,1873
6594,1821
6598,1775
6602,1801
6606,1875
6610,1882
6614,1824
6618,1777
6622,1813
6626,1894
6630,1877
6634,1814
6638,1776
6642,1796
6646,1870
6650,1869
6654,1813
6658,1781
6662,1814
6666,1882
6670,1874
6674,1824
6678,1787
6682,1804
6686,1871
6690,1871
6694,1809
6698,1782
6702,1821
6706,1901
6710,1925
6714,1907
6718,1914
6722,1943
6726,2000
6730,2003
6734,1995
6738,2035
6742,2114
6746,2222
6750,2191
6754,2067
6758,1955
6762,1927
6766,1941
6770,1895
6774,1817
6778,1777
6782,1801
6786,1850
6790,1826
6794,1731
6798,1694
6802,1735
6806,1803
6810,1790
6814,1714
6818,1691
6822,1731
6826,1798
6830,1776
6834,1702
6838,1680
6842,1728
6846,1792
6850,1770
6854,1675
6858,1567
6862,1493
6866,1469
6870,1403
6874,1311
6878,1566
6882,2247
6886,3092
6890,4095
6894,4095
6898,4095
6902,3389
6906,2559
6910,1968
6914,1667
6918,1571
6922,1605
6926,1703
6930,1717
6934,1648
6938,1600
6942,1619
6946,1671
6950,1648
6954,1571
6958,1535
6962,1605
6966,1654
6970,1626
6974,1535
6978,1535
6982,1606
6986,1662
6990,1638
6994,1569
6998,1567
7002,1626
7006,1678
7010,1648
7014,1573
7018,1562
7022,1619
7026,1678
7030,1653
7034,1593
7038,1589
7042,1648
7046,1709
7050,1680
7054,1607
7058,1600
7062,1657
7066,1712
7070,1687
7074,1620
7078,1615
7082,1664
7086,1698
7090,1670
7094,1600
7098,1600
7102,1659
7106,1705
7110,1675
7114,1615
7118,1619
7122,1683
7126,1734
7130,1719
7134,1675
7138,1683
7142,1759
7146,1817
7150,1807
7154,1751
7158,1774
7162,1857
7166,1915
7170,1906
7174,1838
7178,1831
7182,1891
7186,1930
7190,1897
7194,1826
7198,1824
7202,1883
7206,1915
7210,1877
7214,1795
7218,1794
7222,1862
7226,1894
7230,1845
7234,1770
7238,1779
7242,1862
7246,1889
7250,1850
7254,1789
7258,1799
7262,1857
7266,1891
7270,1861
7274,1793
7278,1808
7282,1866
7286,1885
7290,1850
7294,1798
7298,1808
7302,1871
7306,1894
7310,1855
7314,1791
7318,1802
7322,1870
7326,1889
7330,1840
7334,1788
7338,1808
7342,1872
7346,1886
7350,1839
7354,1798
7358,1811
7362,1865
7366,1878
7370,1841
7374,1791
7378,1800
7382,1872
7386,1898
7390,1859
7394,1809
7398,1819
7402,1886
7406,1902
7410,1858
7414,1815
7418,1834
7422,1899
7426,1903
7430,1852
7434,1812
7438,1841
7442,1904
7446,1909
7450,1861
7454,1817
7458,1827
7462,1894
7466,1903
7470,1861
7474,1810
7478,1819
7482,1885
7486,1884
7490,1835
7494,1797
7498,1817
7502,1887
7506,1894
7510,1829
7514,1776
7518,1802
7522,1879
7526,1875
7530,1829
7534,1791
7538,1804
7542,1872
7546,1872
7550,1811
7554,1776
7558,1791
7562,1859
7566,1862
7570,1808
7574,1761
7578,1783
7582,1855
7586,1849
7590,1791
7594,1748
7598,1781
7602,1861
7606,1855
7610,1786
7614,1749
7618,1781
7622,1862
7626,1859
7630,1793
7634,1749
7638,1783
7642,1851
7646,1849
7650,1796
7654,1772
7658,1799
7662,1861
7666,1856
7670,1797
7674,1782
7678,1853
7682,1969
7686,2005
7690,1953
7694,1907
7698,1936
7702,2045
7706,2114
7710,2097
7714,2080
7718,2103
7722,2137
7726,2078
7730,1962
7734,1862
7738,1841
7742,1891
7746,1863
7750,1782
7754,1734
7758,1759
7762,1825
7766,1804
7770,1729
7774,1694
7778,1737
7782,1809
7786,1783
7790,1712
7794,1705
7798,1746
7802,1819
7806,1805
7810,1731
7814,1712
7818,1766
7822,1798
7826,1682
7830,1494
7834,1377
7838,1370
7842,1408
7846,1580
7850,2125
7854,2891
7858,4095
7862,4095
7866,4095
7870,4095
7874,3053
7878,2205
7882,1776
7886,1581
7890,1518
7894,1611
7898,1739
7902,1779
7906,1709
7910,1598
7914,1571
7918,1613
7922,1677
7926,1653
7930,1590
7934,1574
7938,1617
7942,1678
7946,1653
7950,1565
7954,1560
7958,1627
7962,1707
7966,1679
7970,1575
7974,1559
7978,1652
7982,1742
7986,1701
7990,1596
7994,1583
7998,1672
8002,1762
8006,1725
8010,1616
8014,1591
8018,1674
8022,1765
8026,1743
8030,1622
8034,1589
8038,1680
8042,1775
8046,1724
8050,1591
8054,1566
8058,1654
8062,1756
8066,1725
8070,1600
8074,1570
8078,1664
8082,1759
8086,1723
8090,1594
8094,1573
8098,1680
8102,1789
8106,1769
8110,1649
8114,1648
8118,1766
8122,1875
8126,1861
8130,1734
8134,1739
8138,1857
8142,1936
8146,1898
8150,1783
8154,1762
8158,1863
8162,1941
8166,1887
8170,1745
8174,1712
8178,1808
8182,1907
8186,1841
8190,1678
8194,1644
8198,1745
8202,1840
8206,1783
8210,1643
8214,1619
8218,1742
8222,1837
8226,1776
8230,1635
8234,1628
8238,1747
8242,1830
8246,1759
8250,1609
8254,1599
8258,1743
8262,1822
8266,1745
8270,1617
8274,1616
8278,1749
8282,1837
8286,1765
8290,1622
8294,1617
8298,1757
8302,1840
8306,1776
8310,1647
8314,1636
8318,1769
8322,1843
8326,1786
8330,1668
8334,1667
8338,1805
8342,1889
8346,1817
8350,1697
8354,1706
8358,1839
8362,1911
8366,1850
8370,1731
8374,1738
8378,1872
8382,1942
8386,1874
8390,1750
8394,1759
8398,1895
8402,1963
8406,1904
8410,1776
8414,1790
8418,1919
8422,1953
8426,1863
8430,1739
8434,1750
8438,1897
8442,1955
8446,1882
8450,1775
8454,1787
8458,1927
8462,1971
8466,1895
8470,1786
8474,1805
8478,1934
8482,1983
8486,1909
8490,1796
8494,1814
8498,1951
8502,1995
8506,1893
8510,1781
8514,1808
8518,1958
8522,1991
8526,1902
8530,1802
8534,1818
8538,1943
8542,1985
8546,1904
8550,1805
8554,1824
8558,1966
8562,1995
8566,1905
8570,1807
8574,1831
8578,1962
8582,1985
8586,1914
8590,1813
8594,1838
8598,1965
8602,2000
8606,1920
8610,1803
8614,1822
8618,1979
8622,2000
8626,1883
8630,1780
8634,1810
8638,1972
8642,2016
8646,1936
8650,1857
8654,1921
8658,2107
8662,2137
8666,2005
8670,1895
8674,1974
8678,2218
8682,2306
8686,2198
8690,2064
8694,2061
8698,2163
8702,2139
8706,1954
8710,1803
8714,1823
8718,1957
8722,1957
8726,1811
8730,1687
8734,1724
8738,1872
8742,1898
8746,1776
8750,1665
8754,1698
8758,1857
8762,1877
8766,1754
8770,1648
8774,1680
8778,1810
8782,1821
8786,1697
8790,1629
8794,1672
8798,1738
8802,1619
8806,1381
8810,1232
8814,1264
8818,1468
8822,1939
8826,2547
8830,3375
8834,4095
8838,4095
8842,3986
8846,2900
8850,2103
8854,1776
8858,1766
8862,1683
8866,1562
8870,1526
8874,1616
8878,1723
8882,1684
8886,1562
8890,1493
8894,1535
8898,1663
8902,1655
8906,1535
8910,1472
8914,1535
8918,1680
8922,1675
8926,1535
8930,1495
8934,1573
8938,1686
8942,1673
8946,1535
8950,1488
8954,1577
8958,1703
8962,1694
8966,1570
8970,1520
8974,1604
8978,1702
8982,1670
8986,1564
8990,1525
8994,1616
8998,1726
9002,1697
9006,1554
9010,1508
9014,1606
9018,1696
9022,1667
9026,1535
9030,1506
9034,1594
9038,1687
9042,1651
9046,1520
9050,1483
9054,1591
9058,1732
9062,1717
9066,1575
9070,1520
9074,1646
9078,1785
9082,1769
9086,1642
9090,1616
9094,1743
9098,1889
9102,1875
9106,1746
9110,1716
9114,1826
9118,1947
9122,1936
9126,1779
9130,1738
9134,1840
9138,1943
9142,1900
9146,1738
9150,1697
9154,1818
9158,1936
9162,1899
9166,1738
9170,1686
9174,1811
9178,1935
9182,1895
9186,1744
9190,1715
9194,1840
9198,1952
9202,1906
9206,1769
9210,1748
9214,1857
9218,1945
9222,1899
9226,1776
9230,1766
9234,1889
9238,1956
9242,1895
9246,1770
9250,1757
9254,1879
9258,1965
9262,1919
9266,1805
9270,1791
9274,1885
9278,1955
9282,1906
9286,1787
9290,1787
9294,1904
9298,1975
9302,1913
9306,1780
9310,1782
9314,1906
9318,1974
9322,1915
9326,1791
9330,1794
9334,1904
9338,1968
9342,1915
9346,1796
9350,1791
9354,1905
9358,1973
9362,1920
9366,1795
9370,1801
9374,1914
9378,1977
9382,1910
9386,1806
9390,1810
9394,1931
9398,1975
9402,1904
9406,1793
9410,1808
9414,1932
9418,1973
9422,1907
9426,1798
9430,1818
9434,1936
9438,1981
9442,1891
9446,1778
9450,1792
9454,1918
9458,1972
9462,1911
9466,1798
9470,1808
9474,1933
9478,1975
9482,1924
9486,1855
9490,1915
9494,2074
9498,2117
9502,2034
9506,1923
9510,1987
9514,2196
9518,2304
9522,2251
9526,2112
9530,2080
9534,2160
9538,2144
9542,2000
9546,1837
9550,1819
9554,1921
9558,1940
9562,1837
9566,1717
9570,1731
9574,1858
9578,1879
9582,1789
9586,1687
9590,1712
9594,1839
9598,1858
9602,1770
9606,1669
9610,1695
9614,1843
9618,1865
9622,1758
9626,1664
9630,1685
9634,1793
9638,1726
9642,1504
9646,1322
9650,1308
9654,1405
9658,1628
9662,2125
9666,2841
9670,4052
9674,4095
9678,4095
9682,3685
9686,2647
9690,1984
9694,1778
9698,1694
9702,1586
9706,1535
9710,1648
9714,1772
9718,1755
9722,1638
9726,1535
9730,1579
9734,1707
9738,1714
9742,1616
9746,1535
9750,1584
9754,1708
9758,1718
9762,1622
9766,1556
9770,1605
9774,1739
9778,1742
9782,1643
9786,1571
9790,1607
9794,1728
9798,1741
9802,1642
9806,1577
9810,1633
9814,1767
9818,1760
9822,1650
9826,1581
9830,1627
9834,1757
9838,1760
9842,1658
9846,1600
9850,1648
9854,1760
9858,1750
9862,1650
9866,1587
9870,1645
9874,1765
9878,1760
9882,1648
9886,1587
9890,1648
9894,1758
9898,1755
9902,1664
9906,1615
9910,1685
9914,1797
9918,1791
9922,1706
9926,1666
9930,1734
9934,1872
9938,1900
9942,1818
9946,1789
9950,1853
9954,1956
9958,1953
9962,1846
9966,1813
9970,1872
9974,1968
9978,1947
9982,1827
9986,1785
9990,1856
9994,1946
9998,1910
10002,1794
10006,1760
10010,1829
10014,1929
10018,1905
10022,1792
10026,1763
10030,1840
10034,1936
10038,1906
10042,1803
10046,1766
10050,1851
10054,1949
10058,1921
10062,1808
10066,1776
10070,1866
10074,1968
10078,1946
10082,1822
10086,1793
10090,1869
10094,1955
10098,1933
10102,1813
10106,1763
10110,1842
10114,1937
10118,1917
10122,1802
10126,1757
10130,1839
10134,1933
10138,1904
10142,1787
10146,1755
10150,1841
10154,1935
10158,1899
10162,1776
10166,1754
10170,1841
10174,1926
10178,1885
10182,1785
10186,1767
10190,1841
10194,1915
10198,1882
10202,1770
10206,1746
10210,1840
10214,1920
10218,1888
10222,1762
10226,1744
10230,1844
10234,1924
10238,1873
10242,1751
10246,1738
10250,1838
10254,1912
10258,1872
10262,1759
10266,1742
10270,1840
10274,1921
10278,1875
10282,1756
10286,1741
10290,1838
10294,1905
10298,1870
10302,1757
10306,1745
10310,1859
10314,1913
10318,1867
10322,1753
10326,1744
10330,1841
10334,1903
10338,1857
10342,1751
10346,1743
10350,1847
10354,1917
10358,1866
10362,1755
10366,1758
10370,1857
10374,1916
10378,1860
10382,1746
10386,1751
10390,1860
10394,1922
10398,1882
10402,1805
10406,1845
10410,2000
10414,2069
10418,1997
10422,1886
10426,1906
10430,2089
10434,2219
10438,2192
10442,2064
10446,2023
10450,2087
10454,2087
10458,1979
10462,1819
10466,1789
10470,1872
10474,1910
10478,1827
10482,1697
10486,1680
10490,1789
10494,1840
10498,1757
10502,1647
10506,1659
10510,1779
10514,1827
10518,1754
10522,1649
10526,1659
10530,1775
10534,1815
10538,1742
10542,1642
10546,1654
10550,1754
10554,1712
10558,1520
10562,1332
10566,1285
10570,1361
10574,1619
10578,2189
10582,2876
10586,4059
10590,4095
10594,4095
10598,3963
10602,2821
10606,2030
10610,1727
10614,1611
10618,1553
10622,1552
10626,1629
10630,1739
10634,1734
10638,1619
10642,1508
10646,1529
10650,1646
10654,1661
10658,1582
10662,1490
10666,1515
10670,1639
10674,1664
10678,1589
10682,1501
10686,1535
10690,1669
10694,1683
10698,1600
10702,1515
10706,1535
10710,1686
10714,1703
10718,1616
10722,1529
10726,1571
10730,1696
10734,1712
10738,1620
10742,1535
10746,1597
10750,1717
10754,1729
10758,1641
10762,1569
10766,1601
10770,1711
10774,1719
10778,1627
10782,1535
10786,1591
10790,1712
10794,1710
10798,1618
10802,1535
10806,1597
10810,1722
10814,1727
10818,1637
10822,1580
10826,1631
10830,1760
10834,1776
10838,1695
10842,1639
10846,1712
10850,1845
10854,1861
10858,1787
10862,1747
10866,1815
10870,1945
10874,1945
10878,1851
10882,1792
10886,1840
10890,1954
10894,1943
10898,1835
10902,1770
10906,1817
10910,1927
10914,1919
10918,1798
10922,1752
10926,1802
10930,1905
10934,1895
10938,1797
10942,1746
10946,1808
10950,1906
10954,1893
10958,1791
10962,1741
10966,1798
10970,1904
10974,1904
10978,1794
10982,1744
10986,1817
10990,1921
10994,1906
10998,1795
11002,1758
11006,1823
11010,1915
11014,1905
11018,1798
11022,1747
11026,1825
11030,1927
11034,1913
11038,1805
11042,1773
11046,1846
11050,1930
11054,1899
11058,1786
11062,1747
11066,1818
11070,1906
11074,1894
11078,1792
11082,1756
11086,1831
11090,1918
11094,1897
11098,1791
11102,1743
11106,1817
11110,1913
11114,1891
11118,1777
11122,1743
11126,1822
11130,1919
11134,1885
11138,1775
11142,1757
11146,1829
11150,1905
11154,1878
11158,1770
11162,1744
11166,1831
11170,1913
11174,1884
11178,1767
11182,1744
11186,1825
11190,1903
11194,1883
11198,1774
11202,1744
11206,1825
11210,1904
11214,1872
11218,1766
11222,1744
11226,1831
11230,1907
11234,1872
11238,1769
11242,1744
11246,1838
11250,1911
11254,1880
11258,1773
11262,1749
11266,1840
11270,1913
11274,1877
11278,1767
11282,1747
11286,1849
11290,1914
11294,1877
11298,1774
11302,1764
11306,1857
11310,1929
11314,1875
11318,1770
11322,1761
11326,1867
11330,1930
11334,1873
11338,1760
11342,1744
11346,1845
11350,1911
11354,1887
11358,1800
11362,1835
11366,1968
11370,2063
11374,2015
11378,1901
11382,1904
11386,2062
11390,2192
11394,2191
11398,2089
11402,2043
11406,2102
11410,2108
11414,2007
11418,1853
11422,1808
11426,1877
11430,1906
11434,1840
11438,1722
11442,1703
11446,1796
11450,1841
11454,1779
11458,1666
11462,1674
11466,1789
11470,1833
11474,1767
11478,1655
11482,1661
11486,1774
11490,1815
11494,1751
11498,1657
11502,1675
11506,1775
11510,1746
11514,1563
11518,1351
11522,1296
11526,1369
11530,1557
11534,2078
11538,2745
11542,3794
11546,4095
11550,4095
11554,4095
11558,2963
11562,2143
11566,1781
11570,1647
11574,1573
11578,1562
11582,1635
11586,1744
11590,1741
11594,1629
11598,1518
11602,1531
11606,1649
11610,1679
11614,1600
11618,1501
11622,1519
11626,1648
11630,1681
11634,1601
11638,1503
11642,1525
11646,1649
11650,1691
11654,1625
11658,1532
11662,1535
11666,1668
11670,1707
11674,1631
11678,1535
11682,1567
11686,1689
11690,1728
11694,1649
11698,1569
11702,1590
11706,1709
11710,1728
11714,1648
11718,1565
11722,1590
11726,1707
11730,1730
11734,1648
11738,1564
11742,1585
11746,1702
11750,1727
11754,1647
11758,1566
11762,1595
11766,1712
11770,1726
11774,1643
11778,1582
11782,1622
11786,1759
11790,1789
11794,1702
11798,1634
11802,1691
11806,1839
11810,1872
11814,1804
11818,1751
11822,1808
11826,1936
11830,1957
11834,1865
11838,1802
11842,1841
11846,1951
11850,1950
11854,1846
11858,1783
11862,1827
11866,1933
11870,1929
11874,1826
11878,1760
11882,1799
11886,1920
11890,1919
11894,1819
11898,1751
11902,1798
11906,1915
11910,1920
11914,1825
11918,1759
11922,1811
11926,1936
11930,1929
11934,1819
11938,1747
11942,1802
11946,1917
11950,1916
11954,1814
11958,1757
11962,1824
11966,1939
11970,1929
11974,1810
11978,1751
11982,1810
11986,1924
11990,1921
11994,1797
11998,1769
12002,1820
12006,1919
12010,1904
12014,1799
12018,1751
12022,1809
12026,1913
12030,1919
12034,1803
12038,1744
12042,1817
12046,1910
12050,1903
12054,1797
12058,1744
12062,1809
12066,1909
12070,1904
12074,1793
12078,1747
12082,1819
12086,1921
12090,1901
12094,1790
12098,1744
12102,1813
12106,1918
12110,1893
12114,1777
12118,1744
12122,1815
12126,1909
12130,1890
12134,1778
12138,1743
12142,1819
12146,1909
12150,1888
12154,1777
12158,1760
12162,1868
12166,2001
12170,2027
12174,1942
12178,1923
12182,2000
12186,2086
12190,2111
12194,2064
12198,2086
12202,2210
12206,2314
12210,2278
12214,2121
12218,2017
12222,2013
12226,2010
12230,1926
12234,1776
12238,1719
12242,1785
12246,1843
12250,1801
12254,1680
12258,1648
12262,1734
12266,1809
12270,1775
12274,1659
12278,1638
12282,1728
12286,1797
12290,1760
12294,1648
12298,1628
12302,1721
12306,1791
12310,1733
12314,1555
12318,1422
12322,1398
12326,1409
12330,1328
12334,1291
12338,1809
12342,2673
12346,3819
12350,4095
12354,4095
12358,4095
12362,3195
12366,2365
12370,1808
12374,1485
12378,1439
12382,1616
12386,1741
12390,1692
12394,1531
12398,1488
12402,1586
12406,1643
12410,1590
12414,1471
12418,1455
12422,1571
12426,1639
12430,1597
12434,1478
12438,1471
12442,1574
12446,1629
12450,1584
12454,1482
12458,1493
12462,1621
12466,1689
12470,1623
12474,1504
12478,1494
12482,1616
12486,1685
12490,1643
12494,1529
12498,1525
12502,1649
12506,1706
12510,1650
12514,1555
12518,1564
12522,1664
12526,1707
12530,1647
12534,1535
12538,1535
12542,1652
12546,1692
12550,1629
12554,1531
12558,1535
12562,1648
12566,1680
12570,1616
12574,1525
12578,1535
12582,1678
12586,1734
12590,1679
12594,1579
12598,1600
12602,1743
12606,1809
12610,1763
12614,1696
12618,1733
12622,1877
12626,1936
12630,1873
12634,1792
12638,1815
12642,1926
12646,1957
12650,1887
12654,1795
12658,1814
12662,1933
12666,1957
12670,1876
12674,1799
12678,1806
12682,1914
12686,1945
12690,1869
12694,1777
12698,1786
12702,1909
12706,1952
12710,1869
12714,1776
12718,1803
12722,1922
12726,1936
12730,1842
12734,1769
12738,1807
12742,1920
12746,1936
12750,1857
12754,1776
12758,1789
12762,1911
12766,1936
12770,1849
12774,1765
12778,1791
12782,1915
12786,1936
12790,1849
12794,1776
12798,1807
12802,1919
12806,1936
12810,1845
12814,1773
12818,1802
12822,1923
12826,1942
12830,1843
12834,1761
12838,1802
12842,1915
12846,1914
12850,1831
12854,1767
12858,1813
12862,1926
12866,1917
12870,1823
12874,1755
12878,1802
12882,1919
12886,1937
12890,1856
12894,1810
12898,1889
12902,2047
12906,2083
12910,1975
12914,1889
12918,1938
12922,2117
12926,2195
12930,2176
12934,2157
12938,2209
12942,2295
12946,2261
12950,2101
12954,1936
12958,1904
12962,1968
12966,1934
12970,1799
12974,1714
12978,1753
12982,1866
12986,1856
12990,1748
12994,1683
12998,1730
13002,1839
13006,1829
13010,1726
13014,1662
13018,1710
13022,1816
13026,1821
13030,1724
13034,1670
13038,1729
13042,1833
13046,1765
13050,1571
13054,1379
13058,1366
13062,1444
13066,1438
13070,1591
13074,2128
13078,3006
13082,4095
13086,4095
13090,3931
13094,3003
13098,2352
13102,2005
13106,1815
13110,1645
13114,1557
13118,1604
13122,1751
13126,1760
13130,1647
13134,1575
13138,1622
13142,1718
13146,1697
13150,1589
13154,1535
13158,1616
13162,1717
13166,1698
13170,1582
13174,1535
13178,1622
13182,1723
13186,1709
13190,1602
13194,1565
13198,1638
13202,1729
13206,1725
13210,1625
13214,1584
13218,1661
13222,1744
13226,1727
13230,1619
13234,1599
13238,1682
13242,1777
13246,1744
13250,1633
13254,1605
13258,1682
13262,1773
13266,1744
13270,1629
13274,1600
13278,1691
13282,1778
13286,1742
13290,1619
13294,1601
13298,1686
13302,1786
13306,1750
13310,1630
13314,1610
13318,1710
13322,1798
13326,1776
13330,1677
13334,1665
13338,1774
13342,1872
13346,1865
13350,1776
13354,1776
13358,1872
13362,1965
13366,1936
13370,1830
13374,1813
13378,1898
13382,1968
13386,1921
13390,1803
13394,1778
13398,1878
13402,1949
13406,1910
13410,1788
13414,1771
13418,1861
13422,1936
13426,1899
13430,1790
13434,1776
13438,1874
13442,1943
13446,1906
13450,1799
13454,1790
13458,1883
13462,1950
13466,1904
13470,1792
13474,1781
13478,1888
13482,1952
13486,1911
13490,1805
13494,1799
13498,1904
13502,1953
13506,1898
13510,1787
13514,1785
13518,1885
13522,1943
13526,1890
13530,1782
13534,1776
13538,1880
13542,1935
13546,1883
13550,1781
13554,1789
13558,1877
13562,1936
13566,1887
13570,1777
13574,1777
13578,1887
13582,1939
13586,1888
13590,1782
13594,1778
13598,1887
13602,1937
13606,1877
13610,1776
13614,1776
13618,1887
13622,1936
13626,1873
13630,1779
13634,1789
13638,1899
13642,1934
13646,1867
13650,1774
13654,1792
13658,1895
13662,1925
13666,1859
13670,1765
13674,1778
13678,1897
13682,1935
13686,1866
13690,1773
13694,1781
13698,1902
13702,1940
13706,1866
13710,1773
13714,1775
13718,1893
13722,1931
13726,1853
13730,1767
13734,1778
13738,1899
13742,1929
13746,1871
13750,1808
13754,1871
13758,2027
13762,2087
13766,2003
13770,1906
13774,1939
13778,2127
13782,2233
13786,2191
13790,2098
13794,2081
13798,2145
13802,2117
13806,1986
13810,1846
13814,1824
13818,1911
13822,1911
13826,1821
13830,1719
13834,1727
13838,1834
13842,1847
13846,1750
13850,1663
13854,1686
13858,1804
13862,1825
13866,1741
13870,1655
13874,1682
13878,1807
13882,1819
13886,1726
13890,1648
13894,1684
13898,1806
13902,1770
13906,1580
13910,1392
13914,1352
13918,1433
13922,1456
13926,1775
13930,2430
13934,3350
13938,4095
13942,4095
13946,4095
13950,3632
13954,2559
13958,1949
13962,1643
13966,1483
13970,1505
13974,1648
13978,1776
13982,1750
13986,1614
13990,1519
13994,1553
13998,1671
14002,1674
14006,1570
14010,1495
14014,1535
14018,1664
14022,1674
14026,1577
14030,1506
14034,1559
14038,1675
14042,1686
14046,1595
14050,1527
14054,1584
14058,1701
14062,1703
14066,1603
14070,1535
14074,1603
14078,1716
14082,1714
14086,1609
14090,1559
14094,1623
14098,1727
14102,1731
14106,1630
14110,1571
14114,1620
14118,1723
14122,1721
14126,1617
14130,1559
14134,1611
14138,1712
14142,1712
14146,1614
14150,1558
14154,1607
14158,1725
14162,1719
14166,1618
14170,1584
14174,1649
14178,1765
14182,1766
14186,1664
14190,1632
14194,1719
14198,1843
14202,1857
14206,1773
14210,1751
14214,1835
14218,1940
14222,1941
14226,1838
14230,1790
14234,1853
14238,1951
14242,1934
14246,1828
14250,1781
14254,1843
14258,1934
14262,1910
14266,1806
14270,1766
14274,1833
14278,1921
14282,1900
14286,1791
14290,1757
14294,1827
14298,1925
14302,1900
14306,1795
14310,1756
14314,1827
14318,1919
14322,1902
14326,1792
14330,1759
14334,1840
14338,1936
14342,1914
14346,1799
14350,1758
14354,1838
14358,1933
14362,1907
14366,1793
14370,1759
14374,1840
14378,1935
14382,1907
14386,1792
14390,1760
14394,1845
14398,1931
14402,1904
14406,1791
14410,1746
14414,1834
14418,1920
14422,1893
14426,1787
14430,1761
14434,1843
14438,1923
14442,1892
14446,1779
14450,1749
14454,1841
14458,1922
14462,1879
14466,1771
14470,1748
14474,1839
14478,1911
14482,1875
14486,1766
14490,1751
14494,1851
14498,1920
14502,1872
14506,1761
14510,1744
14514,1835
14518,1907
14522,1874
14526,1761
14530,1743
14534,1841
14538,1915
14542,1872
14546,1758
14550,1744
14554,1841
14558,1907
14562,1862
14566,1755
14570,1744
14574,1840
14578,1904
14582,1857
14586,1745
14590,1742
14594,1848
14598,1911
14602,1851
14606,1744
14610,1743
14614,1846
14618,1911
14622,1859
14626,1755
14630,1755
14634,1840
14638,1904
14642,1851
14646,1744
14650,1744
14654,1854
14658,1914
14662,1862
14666,1755
14670,1757
14674,1856
14678,1902
14682,1850
14686,1754
14690,1755
14694,1857
14698,1906
14702,1856
14706,1757
14710,1759
14714,1872
14718,1919
14722,1856
14726,1749
14730,1750
14734,1862
14738,1915
14742,1849
14746,1745
14750,1761
14754,1893
14758,1975
14762,1966
14766,1898
14770,1904
14774,2000
14778,2043
14782,2029
14786,2012
14790,2081
14794,2208
14798,2219
14802,2105
14806,1957
14810,1911
14814,1968
14818,1965
14822,1865
14826,1744
14830,1739
14834,1840
14838,1865
14842,1787
14846,1680
14850,1689
14854,1799
14858,1826
14862,1749
14866,1655
14870,1670
14874,1789
14878,1824
14882,1741
14886,1647
14890,1668
14894,1786
14898,1822
14902,1733
14906,1613
14910,1534
14914,1533
14918,1474
14922,1339
14926,1245
14930,1647
14934,2469
14938,3367
14942,4095
14946,4095
14950,4095
14954,3488
14958,2550
14962,1871
14966,1530
14970,1479
14974,1648
14978,1753
14982,1697
14986,1586
14990,1571
14994,1666
14998,1680
15002,1593
15006,1505
15010,1531
15014,1658
15018,1679
15022,1599
15026,1509
15030,1535
15034,1662
15038,1680
15042,1591
15046,1514
15050,1552
15054,1678
15058,1695
15062,1606
15066,1535
15070,1582
15074,1699
15078,1714
15082,1627
15086,1554
15090,1597
15094,1723
15098,1734
15102,1641
15106,1573
15110,1610
15114,1726
15118,1735
15122,1638
15126,1569
15130,1601
15134,1712
15138,1712
15142,1613
15146,1578
15150,1591
15154,1702
15158,1718
15162,1626
15166,1562
15170,1600
15174,1720
15178,1731
15182,1645
15186,1595
15190,1647
15194,1775
15198,1794
15202,1718
15206,1687
15210,1759
15214,1899
15218,1904
15222,1814
15226,1772
15230,1831
15234,1953
15238,1943
15242,1841
15246,1786
15250,1844
15254,1953
15258,1950
15262,1843
15266,1776
15270,1825
15274,1934
15278,1936
15282,1825
15286,1759
15290,1813
15294,1923
15298,1921
15302,1811
15306,1757
15310,1823
15314,1938
15318,1932
15322,1822
15326,1762
15330,1823
15334,1934
15338,1927
15342,1825
15346,1771
15350,1823
15354,1933
15358,1936
15362,1839
15366,1787
15370,1847
15374,1941
15378,1924
15382,1822
15386,1777
15390,1846
15394,1941
15398,1931
15402,1824
15406,1778
15410,1841
15414,1939
15418,1921
15422,1809
15426,1767
15430,1835
15434,1935
15438,1922
15442,1815
15446,1762
15450,1826
15454,1923
15458,1914
15462,1803
15466,1769
15470,1837
15474,1925
15478,1902
15482,1792
15486,1753
15490,1825
15494,1916
15498,1895
15502,1789
15506,1763
15510,1844
15514,1922
15518,1895
15522,1782
15526,1744
15530,1826
15534,1904
15538,1878
15542,1771
15546,1744
15550,1829
15554,1919
15558,1891
15562,1769
15566,1735
15570,1826
15574,1915
15578,1879
15582,1766
15586,1734
15590,1829
15594,1923
15598,1903
15602,1789
15606,1755
15610,1835
15614,1914
15618,1882
15622,1777
15626,1767
15630,1860
15634,1927
15638,1887
15642,1770
15646,1745
15650,1845
15654,1920
15658,1886
15662,1780
15666,1766
15670,1856
15674,1920
15678,1881
15682,1779
15686,1773
15690,1863
15694,1920
15698,1893
15702,1788
15706,1771
15710,1858
15714,1921
15718,1886
15722,1787
15726,1782
15730,1870
15734,1932
15738,1887
15742,1775
15746,1763
15750,1869
15754,1943
15758,1919
15762,1836
15766,1857
15770,1983
15774,2038
15778,1985
15782,1882
15786,1917
15790,2096
15794,2217
15798,2192
15802,2091
15806,2046
15810,2098
15814,2091
15818,1970
15822,1827
15826,1807
15830,1902
15834,1931
15838,1850
15842,1727
15846,1717
15850,1830
15854,1878
15858,1813
15862,1706
15866,1698
15870,1812
15874,1867
15878,1806
15882,1698
15886,1703
15890,1810
15894,1859
15898,1791
15902,1686
15906,1694
15910,1787
15914,1751
15918,1587
15922,1394
15926,1329
15930,1408
15934,1574
15938,1996
15942,2620
15946,3605
15950,4095
15954,4095
15958,3523
15962,2605
15966,1993
15970,1818
15974,1775
15978,1661
15982,1535
15986,1593
15990,1747
15994,1791
15998,1691
16002,1575
16006,1572
16010,1687
16014,1732
16018,1662
16022,1573
16026,1585
16030,1701
16034,1737
16038,1662
16042,1579
16046,1592
16050,1712
16054,1745
16058,1679
16062,1594
16066,1613
16070,1730
16074,1765
16078,1685
16082,1601
16086,1621
16090,1745
16094,1776
16098,1693
16102,1603
16106,1627
16110,1745
16114,1776
16118,1699
16122,1613
16126,1635
16130,1747
16134,1771
16138,1691
16142,1613
16146,1633
16150,1750
16154,1771
16158,1691
16162,1616
16166,1647
16170,1770
16174,1793
16178,1715
16182,1650
16186,1685
16190,1813
16194,1840
16198,1766
16202,1705
16206,1744
16210,1887
16214,1909
16218,1862
16222,1783
16226,1839
16230,1961
16234,1980
16238,1885
16242,1808
16246,1840
16250,1947
16254,1953
16258,1875
16262,1779
16266,1808
16270,1920
16274,1926
16278,1828
16282,1751
16286,1791
16290,1907
16294,1918
16298,1824
16302,1759
16306,1790
16310,1903
16314,1907
16318,1818
16322,1759
16326,1795
16330,1911
16334,1913
16338,1809
16342,1754
16346,1803
16350,1913
16354,1918
16358,1820
16362,1763
16366,1805
16370,1906
16374,1903
16378,1800
16382,1745
16386,1796
16390,1905
16394,1907
16398,1809
16402,1744
16406,1800
16410,1908
16414,1906
16418,1811
16422,1747
16426,1806
16430,1914
16434,1907
16438,1799
16442,1744
16446,1801
16450,1910
16454,1904
16458,1797
16462,1744
16466,1799
16470,1907
16474,1895
16478,1787
16482,1733
16486,1794
16490,1907
16494,1904
16498,1799
16502,1745
16506,1806
16510,1905
16514,1903
16518,1794
16522,1750
16526,1811
16530,1909
16534,1898
16538,1794
16542,1744
16546,1804
16550,1904
16554,1893
16558,1785
16562,1746
16566,1814
16570,1909
16574,1892
16578,1780
16582,1744
16586,1808
16590,1907
16594,1889
16598,1778
16602,1739
16606,1811
16610,1917
16614,1899
16618,1782
16622,1744
16626,1813
16630,1908
16634,1886
16638,1777
16642,1741
16646,1815
16650,1915
16654,1890
16658,1776
16662,1742
16666,1820
16670,1912
16674,1889
16678,1779
16682,1749
16686,1824
16690,1914
16694,1883
16698,1770
16702,1737
16706,1823
16710,1916
16714,1887
16718,1769
16722,1738
16726,1820
16730,1905
16734,1881
16738,1773
16742,1750
16746,1833
16750,1915
16754,1897
16758,1808
16762,1823
16766,1953
16770,2067
16774,2036
16778,1919
16782,1897
16786,2032
16790,2192
16794,2198
16798,2098
16802,2053
16806,2096
16810,2113
16814,2019
16818,1855
16822,1792
16826,1855
16830,1910
16834,1867
16838,1742
16842,1712
16846,1792
16850,1861
16854,1810
16858,1693
16862,1675
16866,1771
16870,1840
16874,1793
16878,1678
16882,1665
16886,1762
16890,1827
16894,1786
16898,1680
16902,1669
16906,1762
16910,1765
16914,1611
16918,1389
16922,1312
16926,1377
16930,1535
16934,2041
16938,2679
16942,3632
16946,4095
16950,4095
16954,4095
16958,3135
16962,2215
16966,1780
16970,1641
16974,1577
16978,1558
16982,1627
16986,1734
16990,1749
16994,1664
16998,1532
17002,1520
17006,1635
17010,1686
17014,1627
17018,1517
17022,1515
17026,1629
17030,1682
17034,1630
17038,1520
17042,1520
17046,1631
17050,1685
17054,1633
17058,1527
17062,1535
17066,1664
17070,1711
17074,1650
17078,1535
17082,1562
17086,1682
17090,1734
17094,1673
17098,1575
17102,1584
17106,1703
17110,1744
17114,1680
17118,1582
17122,1584
17126,1697
17130,1741
17134,1670
17138,1563
17142,1566
17146,1679
17150,1723
17154,1662
17158,1557
17162,1568
17166,1687
17170,1738
17174,1680
17178,1588
17182,1607
17186,1732
17190,1790
17194,1739
17198,1659
17202,1692
17206,1833
17210,1891
17214,1840
17218,1763
17222,1795
17226,1917
17230,1963
17234,1892
17238,1803
17242,1810
17246,1927
17250,1951
17254,1869
17258,1777
17262,1785
17266,1898
17270,1924
17274,1845
17278,1757
17282,1781
17286,1888
17290,1916
17294,1835
17298,1732
17302,1771
17306,1891
17310,1913
17314,1831
17318,1744
17322,1770
17326,1890
17330,1909
17334,1826
17338,1746
17342,1771
17346,1886
17350,1909
17354,1826
17358,1744
17362,1776
17366,1894
17370,1906
17374,1824
17378,1750
17382,1783
17386,1904
17390,1918
17394,1831
17398,1749
17402,1776
17406,1900
17410,1911
17414,1823
17418,1744
17422,1780
17426,1905
17430,1919
17434,1824
17438,1746
17442,1781
17446,1905
17450,1906
17454,1814
17458,1743
17462,1783
17466,1905
17470,1919
17474,1825
17478,1753
17482,1780
17486,1895
17490,1904
17494,1811
17498,1741
17502,1778
17506,1892
17510,1901
17514,1807
17518,1742
17522,1789
17526,1904
17530,1904
17534,1807
17538,1741
17542,1778
17546,1894
17550,1901
17554,1801
17558,1734
17562,1778
17566,1898
17570,1895
17574,1795
17578,1734
17582,1783
17586,1895
17590,1886
17594,1783
17598,1729
17602,1780
17606,1891
17610,1891
17614,1794
17618,1731
17622,1783
17626,1899
17630,1890
17634,1782
17638,1726
17642,1778
17646,1890
17650,1886
17654,1786
17658,1742
17662,1795
17666,1896
17670,1891
17674,1786
17678,1737
17682,1794
17686,1902
17690,1890
17694,1787
17698,1730
17702,1793
17706,1903
17710,1890
17714,1778
17718,1734
17722,1795
17726,1887
17730,1873
17734,1775
17738,1731
17742,1798
17746,1907
17750,1917
17754,1847
17758,1853
17762,1945
17766,2045
17770,2023
17774,1917
17778,1923
17782,2070
17786,2219
17790,2215
17794,2077
17798,1984
17802,2001
17806,2055
17810,1975
17814,1819
17818,1755
17822,1807
17826,1883
17830,1845
17834,1723
17838,1680
17842,1744
17846,1829
17850,1806
17854,1688
17858,1649
17862,1731
17866,1819
17870,1789
17874,1680
17878,1650
17882,1739
17886,1823
17890,1792
17894,1680
17898,1638
17902,1664
17906,1643
17910,1498
17914,1314
17918,1243
17922,1419
17926,2046
17930,2765
17934,3602
17938,4095
17942,4095
17946,4095
17950,3088
17954,2143
17958,1647
17962,1566
17966,1632
17970,1677
17974,1628
17978,1603
17982,1655
17986,1707
17990,1653
17994,1532
17998,1505
18002,1600
18006,1680
18010,1648
18014,1531
18018,1517
18022,1616
18026,1683
18030,1645
18034,1527
18038,1517
18042,1623
18046,1699
18050,1662
18054,1535
18058,1530
18062,1641
18066,1722
18070,1681
18074,1579
18078,1567
18082,1663
18086,1731
18090,1694
18094,1584
18098,1571
18102,1671
18106,1744
18110,1699
18114,1589
18118,1577
18122,1677
18126,1728
18130,1681
18134,1572
18138,1565
18142,1664
18146,1722
18150,1680
18154,1572
18158,1568
18162,1680
18166,1753
18170,1712
18174,1612
18178,1614
18182,1735
18186,1808
18190,1775
18194,1685
18198,1706
18202,1834
18206,1909
18210,1882
18214,1802
18218,1820
18222,1931
18226,1990
18230,1936
18234,1827
18238,1828
18242,1929
18246,1974
18250,1911
18254,1798
18258,1797
18262,1904
18266,1941
18270,1883
18274,1778
18278,1780
18282,1892
18286,1936
18290,1876
18294,1777
18298,1780
18302,1899
18306,1943
18310,1877
18314,1777
18318,1788
18322,1904
18326,1940
18330,1877
18334,1786
18338,1791
18342,1903
18346,1943
18350,1872
18354,1777
18358,1788
18362,1914
18366,1945
18370,1872
18374,1770
18378,1791
18382,1904
18386,1937
18390,1870
18394,1776
18398,1785
18402,1904
18406,1940
18410,1872
18414,1776
18418,1783
18422,1903
18426,1931
18430,1857
18434,1769
18438,1785
18442,1904
18446,1936
18450,1856
18454,1767
18458,1785
18462,1903
18466,1929
18470,1851
18474,1767
18478,1789
18482,1905
18486,1933
18490,1845
18494,1754
18498,1778
18502,1901
18506,1927
18510,1842
18514,1756
18518,1789
18522,1909
18526,1927
18530,1840
18534,1759
18538,1787
18542,1905
18546,1926
18550,1839
18554,1759
18558,1792
18562,1913
18566,1933
18570,1840
18574,1760
18578,1780
18582,1889
18586,1914
18590,1833
18594,1747
18598,1786
18602,1904
18606,1909
18610,1817
18614,1746
18618,1781
18622,1904
18626,1914
18630,1831
18634,1753
18638,1776
18642,1887
18646,1903
18650,1822
18654,1762
18658,1791
18662,1900
18666,1909
18670,1819
18674,1744
18678,1791
18682,1911
18686,1914
18690,1808
18694,1735
18698,1777
18702,1891
18706,1899
18710,1806
18714,1746
18718,1788
18722,1905
18726,1923
18730,1841
18734,1817
18738,1904
18742,2034
18746,2039
18750,1938
18754,1882
18758,1986
18762,2176
18766,2221
18770,2119
18774,2033
18778,2060
18782,2112
18786,2039
18790,1861
18794,1765
18798,1808
18802,1911
18806,1887
18810,1761
18814,1689
18818,1738
18822,1840
18826,1826
18830,1725
18834,1668
18838,1723
18842,1830
18846,1822
18850,1722
18854,1665
18858,1711
18862,1811
18866,1807
18870,1712
18874,1667
18878,1714
18882,1757
18886,1635
18890,1419
18894,1302
18898,1328
18902,1469
18906,1877
18910,2448
18914,3263
18918,4095
18922,4095
18926,3984
18930,2922
18934,2151
18938,1809
18942,1783
18946,1719
18950,1599
18954,1589
18958,1681
18962,1771
18966,1733
18970,1607
18974,1557
18978,1617
18982,1713
18986,1695
18990,1584
18994,1535
18998,1628
19002,1726
19006,1708
19010,1602
19014,1578
19018,1652
19022,1744
19026,1727
19030,1618
19034,1586
19038,1665
19042,1758
19046,1743
19050,1637
19054,1607
19058,1689
19062,1776
19066,1750
19070,1639
19074,1612
19078,1699
19082,1779
19086,1757
19090,1649
19094,1623
19098,1710
19102,1788
19106,1744
19110,1633
19114,1610
19118,1701
19122,1779
19126,1744
19130,1630
19134,1610
19138,1707
19142,1789
19146,1765
19150,1655
19154,1644
19158,1747
19162,1844
19166,1817
19170,1714
19174,1711
19178,1821
19182,1925
19186,1919
19190,1824
19194,1819
19198,1923
19202,2000
19206,1957
19210,1846
19214,1833
19218,1922
19222,1983
19226,1936
19230,1822
19234,1804
19238,1902
19242,1965
19246,1907
19250,1792
19254,1776
19258,1876
19262,1943
19266,1904
19270,1794
19274,1781
19278,1881
19282,1947
19286,1904
19290,1797
19294,1782
19298,1883
19302,1948
19306,1890
19310,1779
19314,1776
19318,1879
19322,1936
19326,1883
19330,1776
19334,1767
19338,1872
19342,1934
19346,1877
19350,1769
19354,1762
19358,1878
19362,1934
19366,1877
19370,1767
19374,1766
19378,1875
19382,1933
19386,1872
19390,1763
19394,1758
19398,1872
19402,1904
19406,1867
19410,1758
19414,1761
19418,1855
19422,1923
19426,1861
19430,1759
19434,1766
19438,1885
19442,1933
19446,1862
19450,1756
19454,1763
19458,1873
19462,1919
19466,1855
19470,1757
19474,1763
19478,1875
19482,1917
19486,1845
19490,1744
19494,1745
19498,1863
19502,1906
19506,1840
19510,1745
19514,1759
19518,1872
19522,1911
19526,1843
19530,1745
19534,1759
19538,1873
19542,1918
19546,1840
19550,1744
19554,1760
19558,1882
19562,1916
19566,1841
19570,1741
19574,1752
19578,1872
19582,1904
19586,1829
19590,1735
19594,1750
19598,1874
19602,1907
19606,1833
19610,1744
19614,1770
19618,1894
19622,1919
19626,1835
19630,1745
19634,1767
19638,1884
19642,1906
19646,1823
19650,1744
19654,1776
19658,1895
19662,1918
19666,1834
19670,1751
19674,1786
19678,1929
19682,1991
19686,1953
19690,1895
19694,1923
19698,2033
19702,2064
19706,2031
19710,2032
19714,2101
19718,2219
19722,2202
19726,2070
19730,1941
19734,1923
19738,1984
19742,1963
19746,1842
19750,1744
19754,1757
19758,1858
19762,1865
19766,1765
19770,1681
19774,1713
19778,1827
19782,1831
19786,1731
19790,1659
19794,1697
19798,1818
19802,1827
19806,1735
19810,1667
19814,1711
19818,1828
19822,1835
19826,1729
19830,1601
19834,1523
19838,1533
19842,1466
19846,1313
19850,1301
19854,1861
19858,2736
19862,3811
19866,4095
19870,4095
19874,4095
19878,3312
19882,2397
19886,1771
19890,1497
19894,1519
19898,1714
19902,1791
19906,1703
19910,1599
19914,1607
19918,1699
19922,1685
19926,1585
19930,1523
19934,1584
19938,1691
19942,1683
19946,1581
19950,1515
19954,1580
19958,1696
19962,1687
19966,1585
19970,1528
19974,1595
19978,1706
19982,1700
19986,1599
19990,1535
19994,1606
19998,1715
20002,1712
20006,1616
20010,1571
20014,1631
20018,1738
20022,1728
20026,1622
20030,1573
20034,1637
20038,1743
20042,1729
20046,1618
20050,1571
20054,1633
20058,1734
20062,1721
20066,1603
20070,1535
20074,1617
20078,1719
20082,1715
20086,1614
20090,1579
20094,1654
20098,1761
20102,1749
20106,1648
20110,1618
20114,1703
20118,1811
20122,1803
20126,1727
20130,1709
20134,1808
20138,1933
20142,1934
20146,1839
20150,1808
20154,1885
20158,1984
20162,1964
20166,1843
20170,1808
20174,1884
20178,1973
20182,1941
20186,1821
20190,1785
20194,1865
20198,1955
20202,1925
20206,1812
20210,1783
20214,1868
20218,1952
20222,1918
20226,1807
20230,1776
20234,1858
20238,1942
20242,1918
20246,1807
20250,1776
20254,1856
20258,1940
20262,1917
20266,1821
20270,1785
20274,1867
20278,1951
20282,1922
20286,1808
20290,1781
20294,1871
20298,1939
20302,1902
20306,1791
20310,1774
20314,1866
20318,1939
20322,1904
20326,1799
20330,1780
20334,1867
20338,1935
20342,1889
20346,1772
20350,1754
20354,1853
20358,1931
20362,1887
20366,1776
20370,1758
20374,1856
20378,1922
20382,1877
20386,1770
20390,1758
20394,1855
20398,1918
20402,1871
20406,1759
20410,1745
20414,1853
20418,1925
20422,1879
20426,1771
20430,1759
20434,1856
20438,1911
20442,1875
20446,1773
20450,1761
20454,1861
20458,1923
20462,1877
20466,1770
20470,1753
20474,1840
20478,1915
20482,1865
20486,1746
20490,1748
20494,1855
20498,1919
20502,1869
20506,1754
20510,1758
20514,1870
20518,1924
20522,1866
20526,1749
20530,1750
20534,1862
20538,1923
20542,1871
20546,1759
20550,1751
20554,1856
20558,1915
20562,1857
20566,1751
20570,1755
20574,1861
20578,1911
20582,1858
20586,1751
20590,1758
20594,1873
20598,1930
20602,1867
20606,1760
20610,1762
20614,1862
20618,1915
20622,1857
20626,1757
20630,1765
20634,1870
20638,1904
20642,1845
20646,1745
20650,1747
20654,1867
20658,1911
20662,1844
20666,1747
20670,1757
20674,1872
20678,1923
20682,1874
20686,1827
20690,1875
20694,2007
20698,2047
20702,1973
20706,1872
20710,1927
20714,2127
20718,2212
20722,2151
20726,2029
20730,2002
20734,2062
20738,2023
20742,1899
20746,1787
20750,1785
20754,1874
20758,1889
20762,1797
20766,1691
20770,1698
20774,1817
20778,1854
20782,1774
20786,1668
20790,1680
20794,1793
20798,1818
20802,1742
20806,1659
20810,1680
20814,1797
20818,1827
20822,1747
20826,1659
20830,1669
20834,1729
20838,1649
20842,1461
20846,1315
20850,1297
20854,1473
20858,1949
20862,2551
20866,3359
20870,4095
20874,4095
20878,3952
20882,2913
20886,2127
20890,1783
20894,1774
20898,1726
20902,1627
20906,1578
20910,1626
20914,1741
20918,1741
20922,1630
20926,1535
20930,1568
20934,1684
20938,1711
20942,1618
20946,1535
20950,1583
20954,1698
20958,1711
20962,1621
20966,1554
20970,1589
20974,1712
20978,1730
20982,1632
20986,1567
20990,1607
20994,1716
20998,1733
21002,1648
21006,1589
21010,1619
21014,1731
21018,1746
21022,1654
21026,1590
21030,1630
21034,1753
21038,1760
21042,1662
21046,1596
21050,1638
21054,1747
21058,1750
21062,1647
21066,1582
21070,1626
21074,1743
21078,1750
21082,1663
21086,1600
21090,1649
21094,1765
21098,1771
21102,1679
21106,1634
21110,1693
21114,1815
21118,1830
21122,1746
21126,1708
21130,1776
21134,1904
21138,1923
21142,1840
21146,1790
21150,1853
21154,1968
21158,1971
21162,1872
21166,1805
21170,1857
21174,1962
21178,1963
21182,1847
21186,1779
21190,1830
21194,1932
21198,1920
21202,1808
21206,1751
21210,1810
21214,1916
21218,1911
21222,1807
21226,1758
21230,1821
21234,1926
21238,1916
21242,1809
21246,1763
21250,1824
21254,1926
21258,1913
21262,1806
21266,1761
21270,1827
21274,1931
21278,1917
21282,1807
21286,1758
21290,1824
21294,1927
21298,1909
21302,1803
21306,1760
21310,1820
21314,1919
21318,1904
21322,1793
21326,1754
21330,1824
21334,1931
21338,1920
21342,1809
21346,1758
21350,1821
21354,1911
21358,1894
21362,1787
21366,1751
21370,1825
21374,1923
21378,1904
21382,1797
21386,1751
21390,1822
21394,1929
21398,1907
21402,1798
21406,1758
21410,1829
21414,1915
21418,1895
21422,1791
21426,1749
21430,1815
21434,1914
21438,1901
21442,1779
21446,1745
21450,1838
21454,1936
21458,1904
21462,1784
21466,1756
21470,1835
21474,1934
21478,1918
21482,1798
21486,1741
21490,1866
21494,1931
21498,1906
21502,1794
21506,1770
21510,1837
21514,1922
21518,1899
21522,1779
21526,1764
21530,1843
21534,1929
21538,1894
21542,1769
21546,1751
21550,1850
21554,1934
21558,1894
21562,1775
21566,1749
21570,1840
21574,1923
21578,1888
21582,1778
21586,1759
21590,1850
21594,1934
21598,1883
21602,1769
21606,1751
21610,1847
21614,1917
21618,1874
21622,1774
21626,1763
21630,1852
21634,1922
21638,1883
21642,1776
21646,1775
21650,1883
21654,1963
21658,1963
21662,1895
21666,1909
21670,2003
21674,2067
21678,2031
21682,1991
21686,2042
21690,2182
21694,2256
21698,2171
21702,2001
21706,1925
21710,1968
21714,1974
21718,1895
21722,1776
21726,1749
21730,1838
21734,1882
21738,1811
21742,1693
21746,1684
21750,1802
21754,1860
21758,1795
21762,1679
21766,1664
21770,1787
21774,1854
21778,1795
21782,1683
21786,1670
21790,1775
21794,1839
21798,1794
21802,1666
21806,1584
21810,1581
21814,1523
21818,1410
21822,1253
21826,1419
21830,2129
21834,2974
21838,4095
21842,4095
21846,4095
21850,4095
21854,3062
21858,2176
21862,1628
21866,1478
21870,1607
21874,1744
21878,1744
21882,1622
21886,1586
21890,1664
21894,1695
21898,1630
21902,1520
21906,1508
21910,1627
21914,1680
21918,1616
21922,1519
21926,1521
21930,1635
21934,1680
21938,1621
21942,1530
21946,1529
21950,1651
21954,1715
21958,1648
21962,1535
21966,1562
21970,1682
21974,1725
21978,1662
21982,1579
21986,1590
21990,1699
21994,1747
21998,1679
22002,1584
22006,1594
22010,1713
22014,1751
22018,1669
22022,1567
22026,1575
22030,1694
22034,1728
22038,1664
22042,1581
22046,1582
22050,1701
22054,1727
22058,1648
22062,1572
22066,1595
22070,1714
22074,1755
22078,1695
22082,1616
22086,1648
22090,1781
22094,1818
22098,1763
22102,1699
22106,1737
22110,1874
22114,1923
22118,1872
22122,1806
22126,1824
22130,1954
22134,1977
22138,1895
22142,1807
22146,1831
22150,1949
22154,1968
22158,1879
22162,1779
22166,1806
22170,1918
22174,1938
22178,1856
22182,1765
22186,1794
22190,1923
22194,1943
22198,1855
22202,1774
22206,1795
22210,1919
22214,1932
22218,1840
22222,1771
22226,1801
22230,1927
22234,1941
22238,1849
22242,1780
22246,1815
22250,1922
22254,1937
22258,1854
22262,1776
22266,1797
22270,1916
22274,1936
22278,1861
22282,1783
22286,1806
22290,1920
22294,1934
22298,1840
22302,1775
22306,1806
22310,1920
22314,1936
22318,1845
22322,1782
22326,1815
22330,1919
22334,1921
22338,1836
22342,1759
22346,1790
22350,1921
22354,1932
22358,1839
22362,1759
22366,1792
22370,1918
22374,1935
22378,1830
22382,1762
22386,1799
22390,1915
22394,1919
22398,1830
22402,1771
22406,1802
22410,1915
22414,1921
22418,1811
22422,1747
22426,1799
22430,1909
22434,1909
22438,1808
22442,1757
22446,1805
22450,1924
22454,1952
22458,1825
22462,1746
22466,1777
22470,1893
22474,1897
22478,1811
22482,1773
22486,1814
22490,1939
22494,1926
22498,1805
22502,1747
22506,1815
22510,1936
22514,1923
22518,1813
22522,1762
22526,1811
22530,1920
22534,1951
22538,1847
22542,1750
22546,1801
22550,1915
22554,1919
22558,1821
22562,1762
22566,1801
22570,1904
22574,1886
22578,1776
22582,1731
22586,1794
22590,1911
22594,1904
22598,1801
22602,1765
22606,1796
22610,1904
22614,1911
22618,1809
22622,1744
22626,1817
22630,1921
22634,1920
22638,1808
22642,1770
22646,1851
22650,1997
22654,2015
22658,1923
22662,1888
22666,1953
22670,2062
22674,2119
22678,2076
22682,2068
22686,2147
22690,2193
22694,2118
22698,1936
22702,1857
22706,1885
22710,1943
22714,1920
22718,1790
22722,1721
22726,1770
22730,1867
22734,1835
22738,1715
22742,1665
22746,1733
22750,1838
22754,1826
22758,1712
22762,1703
22766,1774
22770,1824
22774,1783
22778,1687
22782,1658
22786,1743
22790,1836
22794,1791
22798,1616
22802,1456
22806,1441
22810,1479
22814,1421
22818,1423
22822,1973
22826,2802
22830,4044
22834,4095
22838,4095
22842,3813
22846,2891
22850,2245
22854,1841
22858,1568
22862,1462
22866,1595
22870,1759
22874,1746
22878,1607
22882,1563
22886,1638
22890,1693
22894,1639
22898,1533
22902,1533
22906,1613
22910,1697
22914,1664
22918,1530
22922,1515
22926,1616
22930,1714
22934,1683
22938,1584
22942,1555
22946,1645
22950,1718
22954,1693
22958,1591
22962,1589
22966,1677
22970,1729
22974,1696
22978,1600
22982,1565
22986,1675
22990,1750
22994,1716
22998,1617
23002,1600
23006,1697
23010,1790
23014,1710
23018,1578
23022,1535
23026,1665
23030,1744
23034,1694
23038,1573
23042,1535
23046,1651
23050,1748
23054,1711
23058,1602
23062,1607
23066,1697
23070,1761
23074,1730
23078,1649
23082,1645
23086,1761
23090,1837
23094,1799
23098,1728
23102,1749
23106,1877
23110,1968
23114,1933
23118,1813
23122,1808
23126,1924
23130,1971
23134,1917
23138,1813
23142,1799
23146,1888
23150,1955
23154,1907
23158,1794
23162,1771
23166,1865
23170,1936
23174,1904
23178,1820
23182,1776
23186,1872
23190,1949
23194,1887
23198,1763
23202,1774
23206,1870
23210,1935
23214,1914
23218,1783
23222,1763
23226,1863
23230,1934
23234,1902
23238,1787
23242,1776
23246,1882
23250,1951
23254,1894
23258,1786
23262,1803
23266,1889
23270,1936
23274,1879
23278,1776
23282,1788
23286,1903
23290,1919
23294,1856
23298,1771
23302,1781
23306,1886
23310,1944
23314,1889
23318,1765
23322,1759
23326,1880
23330,1919
23334,1866
23338,1761
23342,1776
23346,1863
23350,1910
23354,1862
23358,1773
23362,1770
23366,1866
23370,1903
23374,1843
23378,1756
23382,1771
23386,1881
23390,1930
23394,1851
23398,1747
23402,1763
23406,1872
23410,1908
23414,1856
23418,1763
23422,1765
23426,1885
23430,1904
23434,1831
23438,1735
23442,1757
23446,1885
23450,1915
23454,1846
23458,1754
23462,1754
23466,1874
23470,1898
23474,1829
23478,1742
23482,1776
23486,1901
23490,1904
23494,1824
23498,1733
23502,1755
23506,1885
23510,1917
23514,1842
23518,1748
23522,1763
23526,1889
23530,1907
23534,1826
23538,1739
23542,1769
23546,1882
23550,1904
23554,1814
23558,1725
23562,1754
23566,1881
23570,1918
23574,1853
23578,1751
23582,1760
23586,1865
23590,1897
23594,1825
23598,1739
23602,1770
23606,1892
23610,1936
23614,1859
23618,1806
23622,1870
23626,2018
23630,2054
23634,1957
23638,1877
23642,1947
23646,2141
23650,2211
23654,2144
23658,2038
23662,2007
23666,2066
23670,2026
23674,1897
23678,1781
23682,1781
23686,1874
23690,1867
23694,1782
23698,1684
23702,1691
23706,1820
23710,1831
23714,1727
23718,1654
23722,1684
23726,1797
23730,1808
23734,1735
23738,1647
23742,1680
23746,1802
23750,1819
23754,1733
23758,1655
23762,1667
23766,1744
23770,1648
23774,1439
23778,1310
23782,1296
23786,1448
23790,1874
23794,2463
23798,3251
23802,4095
23806,4095
23810,3989
23814,2942
23818,2142
23822,1776
23826,1758
23830,1689
23834,1589
23838,1557
23842,1610
23846,1705
23850,1703
23854,1602
23858,1522
23862,1535
23866,1664
23870,1666
23874,1584
23878,1513
23882,1558
23886,1676
23890,1678
23894,1584
23898,1531
23902,1578
23906,1680
23910,1685
23914,1603
23918,1535
23922,1589
23926,1721
23930,1713
23934,1611
23938,1535
23942,1614
23946,1734
23950,1718
23954,1615
23958,1567
23962,1623
23966,1730
23970,1739
23974,1642
23978,1589
23982,1638
23986,1733
23990,1719
23994,1627
23998,1574
24002,1630
24006,1743
24010,1745
24014,1651
24018,1601
24022,1667
24026,1768
24030,1759
24034,1673
24038,1636
24042,1703
24046,1823
24050,1839
24054,1763
24058,1713
24062,1795
24066,1934
24070,1943
24074,1842
24078,1808
24082,1885
24086,1994
24090,1985
24094,1882
24098,1831
24102,1879
24106,1968
24110,1953
24114,1855
24118,1808
24122,1875
24126,1957
24130,1921
24134,1809
24138,1774
24142,1842
24146,1946
24150,1922
24154,1817
24158,1777
24162,1843
24166,1947
24170,1937
24174,1842
24178,1788
24182,1838
24186,1934
24190,1914
24194,1815
24198,1777
24202,1841
24206,1939
24210,1922
24214,1815
24218,1771
24222,1851
24226,1949
24230,1923
24234,1808
24238,1766
24242,1840
24246,1952
24250,1936
24254,1805
24258,1763
24262,1851
24266,1937
24270,1925
24274,1819
24278,1776
24282,1849
24286,1947
24290,1919
24294,1799
24298,1767
24302,1842
24306,1933
24310,1905
24314,1807
24318,1780
24322,1853
24326,1945
24330,1905
24334,1791
24338,1765
24342,1851
24346,1937
24350,1909
24354,1799
24358,1760
24362,1838
24366,1941
24370,1915
24374,1798
24378,1770
24382,1862
24386,1945
24390,1907
24394,1791
24398,1773
24402,1856
24406,1935
24410,1903
24414,1795
24418,1774
24422,1858
24426,1952
24430,1910
24434,1801
24438,1776
24442,1863
24446,1941
24450,1907
24454,1801
24458,1776
24462,1851
24466,1936
24470,1906
24474,1816
24478,1825
24482,1956
24486,2074
24490,2046
24494,1938
24498,1917
24502,2026
24506,2173
24510,2207
24514,2113
24518,2065
24522,2118
24526,2157
24530,2074
24534,1910
24538,1840
24542,1889
24546,1930
24550,1876
24554,1759
24558,1728
24562,1805
24566,1869
24570,1819
24574,1698
24578,1680
24582,1777
24586,1838
24590,1788
24594,1679
24598,1663
24602,1766
24606,1840
24610,1791
24614,1678
24618,1663
24622,1759
24626,1823
24630,1753
24634,1553
24638,1419
24642,1430
24646,1454
24650,1367
24654,1509
24658,2187
24662,3087
24666,4095
24670,4095
24674,4095
24678,3423
24682,2559
24686,1968
24690,1633
24694,1424
24698,1477
24702,1678
24706,1790
24710,1724
24714,1584
24718,1535
24722,1635
24726,1708
24730,1641
24734,1520
24738,1521
24742,1636
24746,1691
24750,1645
24754,1535
24758,1535
24762,1646
24766,1706
24770,1642
24774,1534
24778,1553
24782,1663
24786,1714
24790,1671
24794,1580
24798,1559
24802,1658
24806,1717
24810,1680
24814,1584
24818,1587
24822,1701
24826,1759
24830,1699
24834,1587
24838,1601
24842,1707
24846,1750
24850,1687
24854,1579
24858,1580
24862,1710
24866,1747
24870,1681
24874,1587
24878,1595
24882,1692
24886,1733
24890,1669
24894,1579
24898,1593
24902,1710
24906,1765
24910,1710
24914,1626
24918,1649
24922,1779
24926,1846
24930,1808
24934,1742
24938,1769
24942,1899
24946,1954
24950,1903
24954,1811
24958,1821
24962,1934
24966,1967
24970,1887
24974,1791
24978,1797
24982,1908
24986,1943
24990,1870
24994,1776
24998,1789
25002,1899
25006,1935
25010,1857
25014,1767
25018,1776
25022,1889
25026,1931
25030,1862
25034,1762
25038,1778
25042,1904
25046,1943
25050,1861
25054,1751
25058,1765
25062,1887
25066,1922
25070,1855
25074,1771
25078,1789
25082,1906
25086,1935
25090,1855
25094,1762
25098,1779
25102,1889
25106,1931
25110,1850
25114,1762
25118,1777
25122,1892
25126,1925
25130,1842
25134,1754
25138,1779
25142,1899
25146,1918
25150,1834
25154,1756
25158,1778
25162,1899
25166,1925
25170,1855
25174,1769
25178,1785
25182,1899
25186,1921
25190,1839
25194,1751
25198,1779
25202,1899
25206,1909
25210,1839
25214,1758
25218,1782
25222,1891
25226,1906
25230,1839
25234,1764
25238,1791
25242,1905
25246,1916
25250,1824
25254,1744
25258,1773
25262,1885
25266,1905
25270,1826
25274,1751
25278,1778
25282,1888
25286,1898
25290,1813
25294,1743
25298,1781
25302,1898
25306,1915
25310,1819
25314,1753
25318,1788
25322,1893
25326,1904
25330,1821
25334,1754
25338,1792
25342,1904
25346,1907
25350,1818
25354,1746
25358,1785
25362,1897
25366,1903
25370,1808
25374,1742
25378,1785
25382,1904
25386,1910
25390,1809
25394,1742
25398,1777
25402,1886
25406,1891
25410,1806
25414,1737
25418,1781
25422,1888
25426,1904
25430,1821
25434,1755
25438,1796
25442,1904
25446,1891
25450,1799
25454,1739
25458,1782
25462,1903
25466,1911
25470,1815
25474,1758
25478,1797
25482,1905
25486,1908
25490,1816
25494,1748
25498,1798
25502,1920
25506,1957
25510,1909
25514,1879
25518,1933
25522,2038
25526,2034
25530,1988
25534,1999
25538,2094
25542,2204
25546,2183
25550,2055
25554,1947
25558,1936
25562,1987
25566,1936
25570,1817
25574,1746
25578,1782
25582,1870
25586,1852
25590,1744
25594,1680
25598,1727
25602,1825
25606,1815
25610,1723
25614,1669
25618,1718
25622,1833
25626,1819
25630,1719
25634,1669
25638,1723
25642,1823
25646,1821
25650,1722
25654,1655
25658,1626
25662,1616
25666,1510
25670,1358
25674,1264
25678,1522
25682,2251
25686,2997
25690,3985
25694,4095
25698,4095
25702,3853
25706,2814
25710,2000
25714,1610
25718,1534
25722,1650
25726,1718
25730,1676
25734,1606
25738,1648
25742,1705
25746,1674
25750,1535
25754,1501
25758,1583
25762,1683
25766,1650
25770,1552
25774,1499
25778,1566
25782,1680
25786,1662
25790,1554
25794,1519
25798,1593
25802,1695
25806,1691
25810,1587
25814,1535
25818,1602
25822,1705
25826,1698
25830,1602
25834,1567
25838,1632
25842,1727
25846,1712
25850,1607
25854,1562
25858,1629
25862,1728
25866,1712
25870,1613
25874,1584
25878,1658
25882,1730
25886,1697
25890,1600
25894,1582
25898,1642
25902,1718
25906,1687
25910,1597
25914,1583
25918,1664
25922,1761
25926,1741
25930,1648
25934,1637
25938,1729
25942,1826
25946,1817
25950,1730
25954,1723
25958,1815
25962,1927
25966,1921
25970,1824
25974,1806
25978,1889
25982,1979
25986,1952
25990,1840
25994,1804
25998,1882
26002,1970
26006,1936
26010,1822
26014,1786
26018,1852
26022,1927
26026,1893
26030,1788
26034,1768
26038,1847
26042,1921
26046,1906
26050,1794
26054,1766
26058,1851
26062,1934
26066,1906
26070,1805
26074,1776
26078,1852
26082,1933
26086,1918
26090,1806
26094,1776
26098,1857
26102,1940
26106,1921
26110,1808
26114,1776
26118,1861
26122,1949
26126,1927
26130,1808
26134,1777
26138,1873
26142,1961
26146,1919
26150,1808
26154,1781
26158,1872
26162,1957
26166,1936
26170,1820
26174,1787
26178,1872
26182,1949
26186,1911
26190,1791
26194,1773
26198,1871
26202,1955
26206,1918
26210,1797
26214,1777
26218,1869
26222,1946
26226,1904
26230,1802
26234,1776
26238,1877
26242,1957
26246,1906
26250,1781
26254,1761
26258,1853
26262,1926
26266,1903
26270,1803
26274,1788
26278,1862
26282,1919
26286,1880
26290,1783
26294,1771
26298,1855
26302,1926
26306,1889
26310,1787
26314,1777
26318,1874
26322,1936
26326,1891
26330,1774
26334,1767
26338,1859
26342,1934
26346,1893
26350,1783
26354,1778
26358,1870
26362,1929
26366,1874
26370,1776
26374,1774
26378,1877
26382,1938
26386,1883
26390,1776
26394,1776
26398,1873
26402,1936
26406,1882
26410,1771
26414,1765
26418,1872
26422,1934
26426,1893
26430,1793
26434,1776
26438,1872
26442,1927
26446,1882
26450,1776
26454,1778
26458,1897
26462,1968
26466,1938
26470,1861
26474,1881
26478,1990
26482,2047
26486,1984
26490,1918
26494,1994
26498,2160
26502,2245
26506,2175
26510,2037
26514,2000
26518,2054
26522,2038
26526,1930
26530,1803
26534,1779
26538,1871
26542,1904
26546,1827
26550,1717
26554,1712
26558,1814
26562,1860
26566,1798
26570,1696
26574,1698
26578,1808
26582,1843
26586,1782
26590,1682
26594,1690
26598,1804
26602,1855
26606,1798
26610,1694
26614,1693
26618,1782
26622,1753
26626,1584
26630,1393
26634,1343
26638,1424
26642,1617
26646,2075
26650,2723
26654,3792
26658,4095
26662,4095
26666,3568
26670,2603
26674,1956
26678,1776
26682,1737
26686,1641
26690,1554
26694,1605
26698,1742
26702,1766
26706,1671
26710,1561
26714,1568
26718,1676
26722,1713
26726,1648
26730,1556
26734,1563
26738,1672
26742,1717
26746,1652
26750,1562
26754,1577
26758,1698
26762,1735
26766,1676
26770,1587
26774,1597
26778,1707
26782,1744
26786,1680
26790,1607
26794,1618
26798,1733
26802,1765
26806,1681
26810,1609
26814,1630
26818,1739
26822,1774
26826,1706
26830,1626
26834,1634
26838,1744
26842,1774
26846,1696
26850,1613
26854,1623
26858,1731
26862,1755
26866,1689
26870,1606
26874,1626
26878,1751
26882,1785
26886,1711
26890,1634
26894,1673
26898,1802
26902,1837
26906,1773
26910,1697
26914,1733
26918,1870
26922,1912
26926,1859
26930,1787
26934,1813
26938,1934
26942,1961
26946,1888
26950,1808
26954,1816
26958,1923
26962,1947
26966,1861
26970,1768
26974,1793
26978,1899
26982,1911
26986,1824
26990,1741
26994,1757
26998,1872
27002,1891
27006,1814
27010,1742
27014,1766
27018,1878
27022,1904
27026,1820
27030,1739
27034,1766
27038,1883
27042,1904
27046,1815
27050,1731
27054,1761
27058,1877
27062,1899
27066,1823
27070,1746
27074,1769
27078,1879
27082,1891
27086,1814
27090,1739
27094,1765
27098,1874
27102,1903
27106,1808
27110,1734
27114,1761
27118,1875
27122,1892
27126,1808
27130,1734
27134,1771
27138,1878
27142,1890
27146,1798
27150,1729
27154,1763
27158,1879
27162,1891
27166,1792
27170,1728
27174,1775
27178,1883
27182,1884
27186,1793
27190,1727
27194,1774
27198,1879
27202,1891
27206,1807
27210,1739
27214,1765
27218,1871
27222,1874
27226,1794
27230,1731
27234,1771
27238,1883
27242,1887
27246,1794
27250,1732
27254,1773
27258,1879
27262,1881
27266,1790
27270,1726
27274,1770
27278,1888
27282,1899
27286,1796
27290,1730
27294,1773
27298,1886
27302,1887
27306,1793
27310,1731
27314,1777
27318,1887
27322,1885
27326,1791
27330,1727
27334,1771
27338,1882
27342,1889
27346,1785
27350,1718
27354,1770
27358,1883
27362,1886
27366,1793
27370,1727
27374,1773
27378,1883
27382,1885
27386,1790
27390,1733
27394,1782
27398,1888
27402,1888
27406,1791
27410,1734
27414,1789
27418,1899
27422,1895
27426,1794
27430,1737
27434,1780
27438,1887
27442,1883
27446,1795
27450,1751
27454,1797
27458,1901
27462,1897
27466,1795
27470,1742
27474,1798
27478,1904
27482,1903
27486,1806
27490,1749
27494,1803
27498,1904
27502,1906
27506,1815
7510,1776
27514,1873
27518,2030
27522,2059
27526,1953
27530,1886
27534,1966
27538,2139
27542,2192
27546,2107
27550,2067
27554,2112
27558,2162
27562,2088
27566,1925
27570,1822
27574,1838
27578,1929
27582,1906
27586,1778
27590,1706
27594,1750
27598,1841
27602,1825
27606,1712
27610,1660
27614,1728
27618,1829
27622,1819
27626,1711
27630,1666
27634,1729
27638,1830
27642,1812
27646,1706
27650,1662
27654,1729
27658,1828
27662,1799
27666,1622
27670,1471
27674,1442
27678,1495
27682,1444
27686,1510
27690,2081
27694,2896
27698,4095
27702,4095
27706,4095
27710,4016
27714,2949
27718,2176
27722,1712
27726,1451
27730,1439
27734,1626
27738,1783
27742,1748
27746,1600
27750,1519
27754,1581
27758,1667
27762,1650
27766,1535
27770,1493
27774,1577
27778,1664
27782,1642
27786,1526
27790,1490
27794,1583
27798,1669
27802,1654
27806,1535
27810,1520
27814,1615
27818,1695
27822,1670
27826,1569
27830,1534
27834,1614
27838,1687
27842,1687
27846,1614
27850,1563
27854,1618
27858,1722
27862,1700
27866,1590
27870,1535
27874,1637
27878,1729
27882,1695
27886,1585
27890,1556
27894,1636
27898,1709
27902,1675
27906,1567
27910,1527
27914,1616
27918,1703
27922,1680
27926,1586
27930,1568
27934,1657
27938,1747
27942,1727
27946,1633
27950,1622
27954,1720
27958,1819
27962,1820
27966,1743
27970,1735
27974,1832
27978,1933
27982,1911
27986,1810
27990,1792
27994,1873
27998,1952
28002,1925
28006,1809
28010,1777
28014,1855
28018,1922
28022,1879
28026,1771
28030,1744
28034,1827
28038,1902
28042,1870
28046,1763
28050,1743
28054,1830
28058,1903
28062,1869
28066,1765
28070,1741
28074,1823
28078,1898
28082,1865
28086,1759
28090,1744
28094,1831
28098,1902
28102,1859
28106,1755
28110,1744
28114,1837
28118,1904
28122,1876
28126,1778
28130,1764
28134,1837
28138,1903
28142,1872
28146,1779
28150,1773
28154,1854
28158,1907
28162,1872
28166,1775
28170,1753
28174,1839
28178,1903
28182,1875
28186,1789
28190,1777
28194,1853
28198,1906
28202,1868
28206,1778
28210,1776
28214,1851
28218,1897
28222,1861
28226,1776
28230,1765
28234,1845
28238,1900
28242,1866
28246,1776
28250,1781
28254,1870
28258,1918
28262,1871
28266,1779
28270,1778
28274,1858
28278,1895
28282,1856
28286,1778
28290,1788
28294,1850
28298,1872
28302,1835
28306,1750
28310,1761
28314,1851
28318,1893
28322,1840
28326,1739
28330,1731
28334,1814
28338,1861
28342,1826
28346,1753
28350,1755
28354,1835
28358,1873
28362,1836
28366,1765
28370,1769
28374,1847
28378,1886
28382,1840
28386,1766
28390,1776
28394,1858
28398,1890
28402,1843
28406,1776
28410,1787
28414,1869
28418,1904
28422,1866
28426,1787
28430,1788
28434,1870
28438,1899
28442,1857
28446,1786
28450,1801
28454,1895
28458,1924
28462,1869
28466,1793
28470,1793
28474,1873
28478,1908
28482,1865
28486,1789
28490,1800
28494,1885
28498,1920
28502,1872
28506,1793
28510,1809
28514,1913
28518,1939
28522,1881
28526,1804
28530,1824
28534,1904
28538,1933
28542,1886
28546,1820
28550,1831
28554,1909
28558,1936
28562,1882
28566,1814
28570,1822
28574,1904
28578,1932
28582,1889
28586,1821
28590,1833
28594,1921
28598,1936
28602,1871
28606,1808
28610,1838
28614,1954
28618,2023
28622,2001
28626,1961
28630,1951
28634,2020
28638,2080
28642,2094
28646,2064
28650,2082
28654,2160
28658,2146
28662,2039
28666,1923
28670,1887
28674,1930
28678,1936
28682,1877
28686,1808
28690,1803
28694,1862
28698,1859
28702,1797
28706,1743
28710,1758
28714,1846
28718,1854
28722,1792
28726,1734
28730,1751
28734,1847
28738,1867
28742,1808
28746,1743
28750,1758
28754,1861
28758,1874
28762,1792
28766,1680
28770,1611
28774,1615
28778,1535
28782,1450
28786,1411
28790,1807
28794,2559
28798,3489
28802,4095
28806,4095
28810,3882
28814,2998
28818,2272
28822,1792
28826,1617
28830,1618
28834,1712
28838,1742
28842,1713
28846,1670
28850,1671
28854,1744
28858,1734
28862,1659
28866,1607
28870,1627
28874,1723
28878,1738
28882,1666
28886,1614
28890,1639
28894,1738
28898,1843
28902,1847
28906,1840
28910,1926
28914,2035
28918,1996
28922,1845
28926,1794
28930,1879
28934,2043
28938,1989
28942,1843
28946,1780
28950,1904
28954,2067
28958,2013
28962,1862
28966,1808
28970,1894
28974,2047
28978,1984
28982,1830
28986,1786
28990,1877
28994,2032
28998,1968
29002,1811
29006,1776
29010,1867
29014,2017
29018,1953
29022,1805
29026,1775
29030,1883
29034,2045
29038,1982
29042,1839
29046,1808
29050,1925
29054,2096
29058,2032
29062,1883
29066,1870
29070,1987
29074,2160
29078,2096
29082,1936
29086,1914
29090,2017
29094,2174
29098,2098
29102,1937
29106,1899
29110,1984
29114,2138
29118,2071
29122,1904
29126,1844
29130,1934
29134,2079
29138,2007
29142,1854
29146,1823
29150,1909
29154,2067
29158,1998
29162,1840
29166,1808
29170,1907
29174,2064
29178,1985
29182,1832
29186,1803
29190,1904
29194,2037
29198,1968
29202,1808
29206,1794
29210,1904
29214,2044
29218,1962
29222,1802
29226,1779
29230,1885
29234,2019
29238,1938
29242,1778
29246,1762
29250,1872
29254,2003
29258,1927
29262,1767
29266,1746
29270,1857
29274,2000
29278,1935
29282,1776
29286,1754
29290,1862
29294,1998
29298,1915
29302,1757
29306,1746
29310,1858
29314,1989
29318,1901
29322,1736
29326,1728
29330,1845
29334,1971
29338,1879
29342,1723
29346,1718
29350,1839
29354,1968
29358,1876
29362,1713
29366,1717
29370,1838
29374,1961
29378,1870
29382,1709
29386,1718
29390,1840
29394,1967
29398,1872
29402,1708
29406,1711
29410,1823
29414,1945
29418,1850
29422,1693
29426,1702
29430,1821
29434,1941
29438,1846
29442,1687
29446,1696
29450,1815
29454,1937
29458,1844
29462,1682
29466,1694
29470,1823
29474,1937
29478,1840
29482,1679
29486,1691
29490,1819
29494,1936
29498,1834
29502,1666
29506,1681
29510,1811
29514,1931
29518,1834
29522,1677
29526,1698
29530,1827
29534,1934
29538,1829
29542,1665
29546,1687
29550,1823
29554,1933
29558,1830
29562,1674
29566,1700
29570,1829
29574,1930
29578,1819
29582,1650
29586,1680
29590,1823
29594,1935
29598,1829
29602,1664
29606,1693
29610,1825
29614,1923
29618,1815
29622,1654
29626,1681
29630,1821
29634,1925
29638,1814
29642,1655
29646,1691
29650,1830
29654,1925
29658,1811
29662,1650
29666,1687
29670,1833
29674,1929
29678,1815
29682,1658
29686,1697
29690,1840
29694,1941
29698,1843
29702,1733
29706,1824
29710,1996
29714,2083
29718,1950
29722,1798
29726,1904
29730,2112
29734,2225
29738,2133
29742,1957
29746,1951
29750,2019
29754,2042
29758,1877
29762,1682
29766,1712
29770,1843
29774,1907
29778,1778
29782,1600
29786,1627
29790,1770
29794,1847
29798,1731
29802,1573
29806,1619
29810,1765
29814,1837
29818,1723
29822,1565
29826,1604
29830,1755
29834,1834
29838,1717
29842,1562
29846,1605
29850,1722
29854,1711
29858,1477
29862,1250
29866,1260
29870,1402
29874,1858
29878,2451
29882,3069
29886,4095
29890,4095
29894,4095
29898,3568
29902,2413
29906,1754
29910,1598
29914,1589
29918,1535
29922,1498
29926,1584
29930,1699
29934,1722
29938,1599
29942,1416
29946,1460
29950,1616
29954,1681
29958,1572
29962,1415
29966,1467
29970,1619
29974,1683
29978,1571
29982,1419
29986,1488
29990,1623
29994,1707
29998,1597
30002,1446
30006,1506
30010,1674
