ms,adc
14,1859
18,1751
22,1733
26,1820
30,1903
34,1847
38,1728
42,1721
46,1808
50,1881
54,1840
58,1724
62,1714
66,1808
70,1889
74,1845
78,1738
82,1726
86,1826
90,1904
94,1867
98,1751
102,1741
106,1839
110,1917
114,1866
118,1749
122,1744
126,1842
130,1922
134,1881
138,1773
142,1781
146,1920
150,2032
154,2007
158,1893
162,1885
166,1995
170,2125
174,2134
178,2059
182,2064
186,2143
190,2171
194,2039
198,1856
202,1798
206,1872
210,1926
214,1859
218,1731
222,1712
226,1802
230,1854
234,1795
238,1671
242,1663
246,1767
250,1834
254,1776
258,1651
262,1651
266,1761
270,1834
274,1776
278,1661
282,1653
286,1755
290,1778
294,1627
298,1399
302,1349
306,1454
310,1535
314,1910
318,2505
322,3367
326,4095
330,4095
334,4095
338,3431
342,2401
346,1823
350,1643
354,1553
358,1516
362,1607
366,1737
370,1766
374,1679
378,1535
382,1525
386,1631
390,1686
394,1633
398,1522
402,1533
406,1645
410,1693
414,1632
418,1518
422,1535
426,1659
430,1708
434,1643
438,1523
442,1534
446,1652
450,1715
454,1658
458,1535
462,1567
466,1683
470,1743
474,1680
478,1583
482,1601
486,1718
490,1767
494,1700
498,1585
502,1591
506,1711
510,1759
514,1686
518,1584
522,1600
526,1717
530,1760
534,1701
538,1599
542,1611
546,1737
550,1796
554,1744
558,1637
562,1663
566,1793
570,1850
574,1790
578,1698
582,1729
586,1856
590,1911
594,1866
598,1778
602,1811
606,1943
610,1993
614,1925
618,1819
622,1821
626,1923
630,1961
634,1885
638,1776
642,1776
646,1885
650,1901
654,1825
658,1712
662,1729
666,1841
670,1871
674,1798
678,1698
682,1711
686,1826
690,1861
694,1791
698,1701
702,1719
706,1840
710,1877
714,1805
718,1712
722,1729
726,1840
730,1868
734,1792
738,1705
742,1734
746,1858
750,1884
754,1806
758,1705
762,1723
766,1844
770,1875
774,1805
778,1711
782,1728
786,1841
790,1868
794,1793
798,1705
802,1729
806,1852
810,1879
814,1795
818,1701
822,1730
826,1856
830,1889
834,1804
838,1712
842,1734
846,1850
850,1875
854,1797
858,1707
862,1734
866,1862
870,1885
874,1797
878,1707
882,1734
886,1854
890,1872
894,1790
898,1702
902,1725
906,1849
910,1882
914,1801
918,1712
922,1737
926,1855
930,1873
934,1793
938,1707
942,1737
946,1854
950,1877
954,1797
958,1706
962,1741
966,1873
970,1881
974,1775
978,1694
982,1746
986,1885
990,1902
994,1802
998,1715
1002,1743
1006,1879
1010,1902
1014,1808
1018,1725
1022,1761
1026,1890
1030,1902
1034,1806
1038,1718
1042,1750
1046,1873
1050,1886
1054,1797
1058,1727
1062,1772
1066,1901
1070,1907
1074,1814
1078,1732
1082,1765
1086,1889
1090,1905
1094,1821
1098,1773
1102,1856
1106,2026
1110,2064
1114,1966
1118,1890
1122,1927
1126,2112
1130,2192
1134,2134
1138,2062
1142,2081
1146,2176
1150,2130
1154,1968
1158,1825
1162,1808
1166,1901
1170,1895
1174,1782
1178,1691
1182,1715
1186,1823
1190,1820
1194,1724
1198,1657
1202,1696
1206,1809
1210,1815
1214,1722
1218,1651
1222,1697
1226,1820
1230,1827
1234,1734
1238,1666
1242,1702
1246,1798
1250,1718
1254,1503
1258,1346
1262,1376
1266,1492
1270,1774
1274,2351
1278,3084
1282,4095
1286,4095
1290,4095
1294,4095
1298,2944
1302,2067
1306,1705
1310,1567
1314,1535
1318,1603
1322,1695
1326,1779
1330,1727
1334,1589
1338,1503
1342,1535
1346,1665
1350,1663
1354,1557
1358,1501
1362,1559
1366,1668
1370,1654
1374,1554
1378,1494
1382,1558
1386,1679
1390,1677
1394,1570
1398,1515
1402,1579
1406,1701
1410,1693
1414,1594
1418,1534
1422,1590
1426,1709
1430,1699
1434,1600
1438,1554
1442,1611
1446,1730
1450,1721
1454,1614
1458,1567
1462,1633
1466,1746
1470,1728
1474,1616
1478,1562
1482,1627
1486,1744
1490,1728
1494,1618
1498,1577
1502,1635
1506,1750
1510,1746
1514,1645
1518,1597
1522,1669
1526,1803
1530,1797
1534,1696
1538,1663
1542,1733
1546,1863
1550,1871
1554,1782
1558,1746
1562,1823
1566,1947
1570,1938
1574,1844
1578,1807
1582,1871
1586,1968
1590,1936
1594,1821
1598,1763
1602,1823
1606,1927
1610,1903
1614,1783
1618,1727
1622,1787
1626,1894
1630,1877
1634,1770
1638,1725
1642,1777
1646,1889
1650,1875
1654,1776
1658,1727
1662,1786
1666,1903
1670,1888
1674,1782
1678,1741
1682,1804
1686,1906
1690,1887
1694,1774
1698,1734
1702,1811
1706,1911
1710,1886
1714,1775
1718,1735
1722,1808
1726,1904
1730,1872
1734,1780
1738,1737
1742,1813
1746,1908
1750,1881
1754,1775
1758,1730
1762,1805
1766,1909
1770,1877
1774,1767
1778,1734
1782,1805
1786,1897
1790,1865
1794,1750
1798,1721
1802,1795
1806,1895
1810,1859
1814,1750
1818,1726
1822,1799
1826,1898
1830,1861
1834,1749
1838,1719
1842,1808
1846,1907
1850,1877
1854,1753
1858,1721
1862,1797
1866,1895
1870,1860
1874,1746
1878,1714
1882,1794
1886,1893
1890,1869
1894,1751
1898,1728
1902,1805
1906,1904
1910,1872
1914,1754
1918,1722
1922,1796
1926,1893
1930,1860
1934,1747
1938,1735
1942,1820
1946,1907
1950,1872
1954,1757
1958,1723
1962,1802
1966,1894
1970,1865
1974,1753
1978,1728
1982,1815
1986,1904
1990,1875
1994,1761
1998,1742
2002,1810
2006,1889
2010,1856
2014,1740
2018,1729
2022,1831
2026,1925
2030,1881
2034,1763
2038,1724
2042,1820
2046,1906
2050,1863
2054,1741
2058,1735
2062,1822
2066,1906
2070,1874
2074,1822
2078,1858
2082,1981
2086,2073
2090,2031
2094,1924
2098,1942
2102,2110
2106,2237
2110,2212
2114,2075
2118,2010
2122,2046
2126,2070
2130,1964
2134,1802
2138,1755
2142,1830
2146,1902
2150,1843
2154,1712
2158,1680
2162,1777
2166,1856
2170,1793
2174,1673
2178,1664
2182,1757
2186,1833
2190,1782
2194,1664
2198,1652
2202,1758
2206,1827
2210,1775
2214,1661
2218,1616
2222,1609
2226,1556
2230,1410
2234,1264
2238,1239
2242,1680
2246,2454
2250,3282
2254,4095
2258,4095
2262,4095
2266,3755
2270,2670
2274,1877
2278,1587
2282,1585
2286,1697
2290,1726
2294,1638
2298,1593
2302,1648
2306,1687
2310,1623
2314,1505
2318,1498
2322,1599
2326,1669
2330,1617
2334,1495
2338,1493
2342,1603
2346,1680
2350,1629
2354,1504
2358,1493
2362,1613
2366,1690
2370,1649
2374,1529
2378,1520
2382,1645
2386,1716
2390,1652
2394,1535
2398,1559
2402,1663
2406,1737
2410,1681
2414,1564
2418,1555
2422,1671
2426,1748
2430,1705
2434,1589
2438,1585
2442,1685
2446,1744
2450,1686
2454,1584
2458,1587
2462,1691
2466,1749
2470,1693
2474,1584
2478,1590
2482,1701
2486,1754
2490,1696
2494,1600
2498,1621
2502,1744
2506,1807
2510,1750
2514,1662
2518,1703
2522,1845
2526,1919
2530,1872
2534,1776
2538,1797
2542,1909
2546,1968
2550,1910
2554,1809
2558,1825
2562,1935
2566,1968
2570,1893
2574,1787
2578,1802
2582,1910
2586,1953
2590,1887
2594,1768
2598,1772
2602,1877
2606,1935
2610,1873
2614,1769
2618,1776
2622,1883
2626,1936
2630,1875
2634,1777
2638,1790
2642,1889
2646,1931
2650,1863
2654,1762
2658,1774
2662,1872
2666,1922
2670,1870
2674,1759
2678,1770
2682,1886
2686,1935
2690,1863
2694,1755
2698,1775
2702,1890
2706,1933
2710,1859
2714,1757
2718,1765
2722,1877
2726,1915
2730,1850
2734,1746
2738,1760
2742,1872
2746,1917
2750,1851
2754,1751
2758,1773
2762,1885
2766,1909
2770,1847
2774,1751
2778,1762
2782,1872
2786,1911
2790,1839
2794,1743
2798,1771
2802,1885
2806,1915
2810,1840
2814,1744
2818,1761
2822,1872
2826,1904
2830,1834
2834,1717
2838,1738
2842,1867
2846,1905
2850,1829
2854,1743
2858,1767
2862,1877
2866,1892
2870,1819
2874,1731
2878,1767
2882,1890
2886,1925
2890,1845
2894,1744
2898,1761
2902,1869
2906,1904
2910,1840
2914,1751
2918,1776
2922,1901
2926,1922
2930,1838
2934,1745
2938,1773
2942,1892
2946,1920
2950,1841
2954,1758
2958,1781
2962,1903
2966,1926
2970,1851
2974,1763
2978,1785
2982,1896
2986,1918
2990,1836
2994,1745
2998,1770
3002,1889
3006,1917
3010,1835
3014,1745
3018,1789
3022,1941
3026,2029
3030,1986
3034,1903
3038,1923
3042,2029
3046,2083
3050,2085
3054,2066
3058,2117
3062,2219
3066,2198
3070,2047
3074,1921
3078,1895
3082,1966
3086,1953
3090,1840
3094,1728
3098,1730
3102,1866
3106,1857
3110,1765
3114,1666
3118,1696
3122,1819
3126,1829
3130,1734
3134,1650
3138,1683
3142,1799
3146,1809
3150,1728
3154,1649
3158,1689
3162,1801
3166,1777
3170,1584
3174,1363
3178,1294
3182,1370
3186,1353
3190,1584
3194,2213
3198,3117
3202,4095
3206,4095
3210,4095
3214,3738
3218,2715
3222,2098
3226,1755
3230,1520
3234,1487
3238,1616
3242,1766
3246,1739
3250,1607
3254,1516
3258,1535
3262,1641
3266,1645
3270,1555
3274,1485
3278,1523
3282,1655
3286,1657
3290,1557
3294,1485
3298,1528
3302,1652
3306,1663
3310,1569
3314,1494
3318,1535
3322,1678
3326,1677
3330,1584
3334,1516
3338,1565
3342,1694
3346,1705
3350,1611
3354,1535
3358,1582
3362,1707
3366,1711
3370,1622
3374,1552
3378,1601
3382,1719
3386,1710
3390,1609
3394,1532
3398,1581
3402,1705
3406,1698
3410,1584
3414,1511
3418,1564
3422,1694
3426,1697
3430,1600
3434,1535
3438,1609
3442,1739
3446,1744
3450,1649
3454,1602
3458,1666
3462,1811
3466,1824
3470,1734
3474,1690
3478,1767
3482,1904
3486,1924
3490,1840
3494,1789
3498,1848
3502,1968
3506,1968
3510,1863
3514,1807
3518,1850
3522,1954
3526,1948
3530,1840
3534,1783
3538,1839
3542,1950
3546,1939
3550,1830
3554,1770
3558,1830
3562,1947
3566,1936
3570,1837
3574,1781
3578,1840
3582,1956
3586,1938
3590,1825
3594,1766
3598,1827
3602,1940
3606,1923
3610,1818
3614,1765
3618,1809
3622,1930
3626,1920
3630,1815
3634,1769
3638,1833
3642,1943
3646,1931
3650,1829
3654,1776
3658,1838
3662,1943
3666,1921
3670,1815
3674,1764
3678,1823
3682,1936
3686,1916
3690,1809
3694,1770
3698,1830
3702,1939
3706,1919
3710,1806
3714,1761
3718,1824
3722,1936
3726,1916
3730,1808
3734,1767
3738,1822
3742,1928
3746,1904
3750,1794
3754,1756
3758,1821
3762,1926
3766,1915
3770,1815
3774,1766
3778,1820
3782,1919
3786,1899
3790,1783
3794,1738
3798,1809
3802,1927
3806,1904
3810,1789
3814,1751
3818,1819
3822,1919
3826,1889
3830,1776
3834,1738
3838,1811
3842,1925
3846,1904
3850,1787
3854,1750
3858,1811
3862,1921
3866,1901
3870,1790
3874,1753
3878,1819
3882,1919
3886,1888
3890,1778
3894,1742
3898,1815
3902,1910
3906,1887
3910,1781
3914,1743
3918,1827
3922,1925
3926,1902
3930,1801
3934,1787
3938,1899
3942,2046
3946,2045
3950,1933
3954,1884
3958,1971
3962,2142
3966,2183
3970,2095
3974,2053
3978,2096
3982,2144
3986,2065
3990,1904
3994,1822
3998,1863
4002,1925
4006,1859
4010,1734
4014,1702
4018,1774
4022,1845
4026,1804
4030,1687
4034,1655
4038,1744
4042,1834
4046,1803
4050,1679
4054,1655
4058,1744
4062,1831
4066,1794
4070,1675
4074,1648
4078,1703
4082,1707
4086,1534
4090,1298
4094,1185
4098,1214
4102,1456
4106,2041
4110,2741
4114,3806
4118,4095
4122,4095
4126,4094
4130,2959
4134,2163
4138,1822
4142,1717
4146,1648
4150,1588
4154,1595
4158,1669
4162,1722
4166,1680
4170,1513
4174,1483
4178,1562
4182,1651
4186,1615
4190,1497
4194,1476
4198,1566
4202,1648
4206,1615
4210,1513
4214,1492
4218,1590
4222,1678
4226,1635
4230,1509
4234,1501
4238,1605
4242,1681
4246,1645
4250,1533
4254,1525
4258,1621
4262,1692
4266,1661
4270,1535
4274,1535
4278,1643
4282,1734
4286,1682
4290,1565
4294,1535
4298,1645
4302,1707
4306,1662
4310,1535
4314,1519
4318,1616
4322,1691
4326,1654
4330,1521
4334,1503
4338,1615
4342,1687
4346,1644
4350,1522
4354,1533
4358,1659
4362,1744
4366,1690
4370,1597
4374,1606
4378,1720
4382,1808
4386,1785
4390,1701
4394,1717
4398,1847
4402,1945
4406,1904
4410,1805
4414,1805
4418,1900
4422,1967
4426,1915
4430,1806
4434,1805
4438,1904
4442,1968
4446,1914
4450,1792
4454,1786
4458,1897
4462,1955
4466,1894
4470,1791
4474,1802
4478,1905
4482,1957
4486,1895
4490,1776
4494,1782
4498,1895
4502,1951
4506,1899
4510,1784
4514,1785
4518,1893
4522,1959
4526,1894
4530,1776
4534,1781
4538,1895
4542,1952
4546,1891
4550,1776
4554,1767
4558,1877
4562,1948
4566,1891
4570,1776
4574,1778
4578,1890
4582,1935
4586,1875
4590,1773
4594,1777
4598,1887
4602,1939
4606,1872
4610,1762
4614,1772
4618,1885
4622,1936
4626,1873
4630,1749
4634,1769
4638,1884
4642,1938
4646,1875
4650,1771
4654,1777
4658,1888
4662,1936
4666,1867
4670,1759
4674,1774
4678,1886
4682,1936
4686,1872
4690,1763
4694,1771
4698,1885
4702,1936
4706,1870
4710,1763
4714,1773
4718,1885
4722,1926
4726,1861
4730,1759
4734,1775
4738,1887
4742,1921
4746,1845
4750,1743
4754,1767
4758,1885
4762,1930
4766,1864
4770,1763
4774,1776
4778,1890
4782,1936
4786,1859
4790,1748
4794,1777
4798,1898
4802,1934
4806,1863
4810,1760
4814,1783
4818,1902
4822,1936
4826,1869
4830,1786
4834,1842
4838,2005
4842,2066
4846,1999
4850,1890
4854,1899
4858,2055
4862,2176
4866,2165
4870,2071
4874,2068
4878,2148
4882,2131
4886,1997
4890,1850
4894,1814
4898,1908
4902,1933
4906,1840
4910,1723
4914,1731
4918,1841
4922,1867
4926,1786
4930,1680
4934,1703
4938,1819
4942,1846
4946,1771
4950,1678
4954,1683
4958,1804
4962,1833
4966,1763
4970,1681
4974,1679
4978,1739
4982,1646
4986,1420
4990,1223
4994,1171
4998,1298
5002,1782
5006,2463
5010,3283
5014,4095
5018,4095
5022,4095
5026,3408
5030,2448
5034,1940
5038,1827
5042,1722
5046,1626
5050,1580
5054,1613
5058,1712
5062,1699
5066,1603
5070,1506
5074,1521
5078,1645
5082,1665
5086,1584
5090,1483
5094,1513
5098,1641
5102,1655
5106,1569
5110,1487
5114,1517
5118,1647
5122,1670
5126,1590
5130,1493
5134,1524
5138,1667
5142,1681
5146,1587
5150,1507
5154,1555
5158,1680
5162,1680
5166,1597
5170,1514
5174,1565
5178,1689
5182,1706
5186,1599
5190,1520
5194,1557
5198,1680
5202,1689
5206,1584
5210,1488
5214,1523
5218,1664
5222,1681
5226,1585
5230,1511
5234,1566
5238,1676
5242,1681
5246,1592
5250,1517
5254,1565
5258,1696
5262,1722
5266,1648
5270,1589
5274,1646
5278,1786
5282,1825
5286,1762
5290,1709
5294,1773
5298,1921
5302,1936
5306,1857
5310,1791
5314,1831
5318,1949
5322,1962
5326,1881
5330,1805
5334,1840
5338,1957
5342,1968
5346,1870
5350,1786
5354,1829
5358,1964
5362,1963
5366,1859
5370,1779
5374,1820
5378,1935
5382,1946
5386,1851
5390,1790
5394,1839
5398,1955
5402,1947
5406,1851
5410,1776
5414,1808
5418,1929
5422,1926
5426,1840
5430,1778
5434,1820
5438,1936
5442,1934
5446,1836
5450,1767
5454,1813
5458,1932
5462,1927
5466,1824
5470,1761
5474,1808
5478,1936
5482,1936
5486,1831
5490,1750
5494,1794
5498,1911
5502,1918
5506,1829
5510,1773
5514,1807
5518,1914
5522,1917
5526,1824
5530,1757
5534,1811
5538,1939
5542,1920
5546,1815
5550,1761
5554,1814
5558,1934
5562,1923
5566,1811
5570,1746
5574,1805
5578,1920
5582,1921
5586,1815
5590,1741
5594,1808
5598,1936
5602,1923
5606,1820
5610,1767
5614,1808
5618,1926
5622,1917
5626,1822
5630,1759
5634,1808
5638,1936
5642,1922
5646,1805
5650,1754
5654,1811
5658,1925
5662,1907
5666,1805
5670,1758
5674,1828
5678,1936
5682,1921
5686,1808
5690,1754
5694,1829
5698,1970
5702,1986
5706,1925
5710,1898
5714,1956
5718,2059
5722,2028
5726,1975
5730,2015
5734,2129
5738,2240
5742,2203
5746,2053
5750,1955
5754,1968
5758,2009
5762,1949
5766,1799
5770,1734
5774,1791
5778,1895
5782,1863
5786,1744
5790,1680
5794,1735
5798,1841
5802,1817
5806,1702
5810,1657
5814,1721
5818,1837
5822,1808
5826,1694
5830,1643
5834,1715
5838,1814
5842,1782
5846,1612
5850,1422
5854,1360
5858,1377
5862,1283
5866,1191
5870,1648
5874,2495
5878,3646
5882,4095
5886,4095
5890,4095
5894,3293
5898,2519
5902,2002
5906,1664
5910,1507
5914,1597
5918,1760
5922,1741
5926,1601
5930,1523
5934,1568
5938,1653
5942,1616
5946,1503
5950,1472
5954,1535
5958,1648
5962,1616
5966,1495
5970,1470
5974,1557
5978,1650
5982,1629
5986,1513
5990,1488
5994,1579
5998,1680
6002,1648
6006,1520
6010,1494
6014,1584
6018,1687
6022,1650
6026,1535
6030,1511
6034,1615
6038,1706
6042,1665
6046,1535
6050,1504
6054,1599
6058,1697
6062,1659
6066,1535
6070,1501
6074,1570
6078,1658
6082,1634
6086,1506
6090,1469
6094,1569
6098,1668
6102,1639
6106,1514
6110,1491
6114,1584
6118,1678
6122,1653
6126,1535
6130,1531
6134,1632
6138,1742
6142,1726
6146,1634
6150,1643
6154,1756
6158,1863
6162,1847
6166,1759
6170,1763
6174,1860
6178,1963
6182,1938
6186,1821
6190,1803
6194,1895
6198,1991
6202,1958
6206,1827
6210,1791
6214,1883
6218,1984
6222,1943
6226,1819
6230,1797
6234,1885
6238,1967
6242,1921
6246,1808
6250,1795
6254,1871
6258,1955
6262,1927
6266,1809
6270,1774
6274,1881
6278,1958
6282,1903
6286,1809
6290,1805
6294,1892
6298,1973
6302,1936
6306,1820
6310,1785
6314,1877
6318,1963
6322,1925
6326,1803
6330,1793
6334,1894
6338,1968
6342,1917
6346,1803
6350,1783
6354,1873
6358,1943
6362,1915
6366,1809
6370,1792
6374,1883
6378,1968
6382,1909
6386,1780
6390,1771
6394,1879
6398,1950
6402,1904
6406,1778
6410,1776
6414,1872
6418,1947
6422,1904
6426,1793
6430,1781
6434,1872
6438,1936
6442,1901
6446,1790
6450,1780
6454,1873
6458,1936
6462,1892
6466,1776
6470,1775
6474,1876
6478,1949
6482,1901
6486,1777
6490,1775
6494,1879
6498,1947
6502,1893
6506,1776
6510,1776
6514,1870
6518,1936
6522,1889
6526,1777
6530,1773
6534,1895
6538,1998
6542,1990
6546,1918
6550,1919
6554,2012
6558,2072
6562,2032
6566,1975
6570,2038
6574,2179
6578,2231
6582,2131
6586,1962
6590,1923
6594,1978
6598,1979
6602,1889
6606,1751
6610,1744
6614,1837
6618,1871
6622,1804
6626,1693
6630,1682
6634,1776
6638,1833
6642,1776
6646,1670
6650,1665
6654,1776
6658,1839
6662,1767
6666,1655
6670,1652
6674,1761
6678,1817
6682,1745
6686,1535
6690,1397
6694,1361
6698,1333
6702,1180
6706,1181
6710,1803
6714,2749
6718,4023
6722,4095
6726,4095
6730,3919
6734,3050
6738,2395
6742,1948
6746,1616
6750,1520
6754,1655
6758,1744
6762,1679
6766,1535
6770,1520
6774,1608
6778,1648
6782,1584
6786,1476
6790,1488
6794,1603
6798,1654
6802,1575
6806,1461
6810,1474
6814,1600
6818,1651
6822,1591
6826,1485
6830,1499
6834,1623
6838,1670
6842,1603
6846,1493
6850,1520
6854,1651
6858,1705
6862,1623
6866,1525
6870,1535
6874,1663
6878,1711
6882,1629
6886,1520
6890,1523
6894,1648
6898,1700
6902,1621
6906,1497
6910,1500
6914,1620
6918,1671
6922,1601
6926,1490
6930,1494
6934,1584
6938,1618
6942,1535
6946,1467
6950,1488
6954,1600
6958,1655
6962,1614
6966,1514
6970,1535
6974,1680
6978,1737
6982,1682
6986,1616
6990,1651
6994,1785
6998,1857
7002,1808
7006,1726
7010,1768
7014,1894
7018,1956
7022,1877
7026,1783
7030,1809
7034,1936
7038,1973
7042,1889
7046,1783
7050,1811
7054,1936
7058,1965
7062,1873
7066,1786
7070,1824
7074,1938
7078,1980
7082,1907
7086,1829
7090,1838
7094,1941
7098,1968
7102,1879
7106,1783
7110,1834
7114,1966
7118,1939
7122,1844
7126,1751
7130,1777
7134,1901
7138,1933
7142,1857
7146,1763
7150,1794
7154,1916
7158,1936
7162,1862
7166,1778
7170,1799
7174,1913
7178,1939
7182,1863
7186,1772
7190,1802
7194,1917
7198,1946
7202,1865
7206,1783
7210,1812
7214,1932
7218,1951
7222,1861
7226,1789
7230,1828
7234,1938
7238,1948
7242,1859
7246,1771
7250,1808
7254,1936
7258,1955
7262,1870
7266,1782
7270,1808
7274,1936
7278,1967
7282,1875
7286,1782
7290,1805
7294,1934
7298,1967
7302,1871
7306,1787
7310,1808
7314,1918
7318,1931
7322,1856
7326,1787
7330,1805
7334,1918
7338,1942
7342,1842
7346,1761
7350,1807
7354,1923
7358,1941
7362,1825
7366,1758
7370,1809
7374,1968
7378,2033
7382,1983
7386,1899
7390,1909
7394,2001
7398,2046
7402,2053
7406,2047
7410,2117
7414,2221
7418,2176
7422,2032
7426,1909
7430,1900
7434,1969
7438,1951
7442,1840
7446,1750
7450,1765
7454,1863
7458,1860
7462,1767
7466,1691
7470,1728
7474,1847
7478,1859
7482,1759
7486,1680
7490,1727
7494,1844
7498,1844
7502,1744
7506,1678
7510,1715
7514,1841
7518,1831
7522,1655
7526,1447
7530,1351
7534,1391
7538,1333
7542,1282
7546,1699
7550,2481
7554,3634
7558,4095
7562,4095
7566,3809
7570,2913
7574,2341
7578,2005
7582,1776
7586,1591
7590,1591
7594,1726
7598,1745
7602,1637
7606,1535
7610,1575
7614,1680
7618,1674
7622,1582
7626,1511
7630,1557
7634,1687
7638,1686
7642,1585
7646,1511
7650,1568
7654,1690
7658,1690
7662,1616
7666,1525
7670,1578
7674,1698
7678,1702
7682,1616
7686,1557
7690,1602
7694,1725
7698,1727
7702,1631
7706,1554
7710,1593
7714,1721
7718,1733
7722,1650
7726,1575
7730,1601
7734,1718
7738,1728
7742,1621
7746,1553
7750,1605
7754,1733
7758,1722
7762,1613
7766,1556
7770,1610
7774,1735
7778,1731
7782,1623
7786,1578
7790,1634
7794,1762
7798,1771
7802,1694
7806,1649
7810,1710
7814,1838
7818,1851
7822,1770
7826,1731
7830,1803
7834,1930
7838,1931
7842,1830
7846,1776
7850,1835
7854,1949
7858,1936
7862,1831
7866,1775
7870,1833
7874,1951
7878,1936
7882,1823
7886,1765
7890,1823
7894,1932
7898,1918
7902,1818
7906,1771
7910,1823
7914,1934
7918,1918
7922,1809
7926,1747
7930,1808
7934,1918
7938,1906
7942,1797
7946,1738
7950,1799
7954,1919
7958,1911
7962,1805
7966,1744
7970,1807
7974,1918
7978,1897
7982,1783
7986,1747
7990,1819
7994,1929
7998,1911
8002,1809
8006,1767
8010,1821
8014,1925
8018,1899
8022,1794
8026,1759
8030,1821
8034,1927
8038,1906
8042,1802
8046,1761
8050,1822
8054,1936
8058,1921
8062,1808
8066,1759
8070,1823
8074,1934
8078,1913
8082,1802
8086,1760
8090,1824
8094,1936
8098,1935
8102,1859
8106,1856
8110,1945
8114,2075
8118,2065
8122,1959
8126,1936
8130,2059
8134,2229
8138,2277
8142,2205
8146,2159
8150,2203
8154,2263
8158,2173
8162,1969
8166,1855
8170,1870
8174,1936
8178,1883
8182,1749
8186,1689
8190,1750
8194,1840
8198,1808
8202,1698
8206,1650
8210,1717
8214,1815
8218,1789
8222,1678
8226,1635
8230,1711
8234,1819
8238,1799
8242,1680
8246,1645
8250,1706
8254,1741
8258,1595
8262,1358
8266,1242
8270,1280
8274,1439
8278,1882
8282,2498
8286,3382
8290,4095
8294,4095
8298,4087
8302,2928
8306,2103
8310,1738
8314,1681
8318,1619
8322,1562
8326,1611
8330,1707
8334,1776
8338,1715
8342,1577
8346,1535
8350,1631
8354,1715
8358,1680
8362,1559
8366,1520
8370,1611
8374,1705
8378,1675
8382,1535
8386,1520
8390,1615
8394,1719
8398,1696
8402,1587
8406,1555
8410,1646
8414,1744
8418,1705
8422,1581
8426,1554
8430,1655
8434,1735
8438,1712
8442,1589
8446,1568
8450,1664
8454,1757
8458,1723
8462,1605
8466,1583
8470,1665
8474,1755
8478,1712
8482,1593
8486,1569
8490,1650
8494,1739
8498,1699
8502,1583
8506,1559
8510,1648
8514,1738
8518,1701
8522,1591
8526,1585
8530,1680
8534,1766
8538,1734
8542,1643
8546,1654
8550,1748
8554,1840
8558,1822
8562,1744
8566,1753
8570,1859
8574,1951
8578,1921
8582,1813
8586,1792
8590,1875
8594,1962
8598,1931
8602,1815
8606,1803
8610,1888
8614,1958
8618,1915
8622,1799
8626,1777
8630,1869
8634,1948
8638,1914
8642,1803
8646,1789
8650,1876
8654,1954
8658,1917
8662,1808
8666,1802
8670,1889
8674,1959
8678,1914
8682,1796
8686,1791
8690,1888
8694,1955
8698,1904
8702,1786
8706,1773
8710,1865
8714,1942
8718,1903
8722,1789
8726,1775
8730,1862
8734,1931
8738,1886
8742,1782
8746,1776
8750,1870
8754,1926
8758,1879
8762,1776
8766,1767
8770,1851
8774,1918
8778,1876
8782,1770
8786,1755
8790,1847
8794,1915
8798,1869
8802,1734
8806,1744
8810,1840
8814,1920
8818,1872
8822,1751
8826,1746
8830,1851
8834,1915
8838,1855
8842,1733
8846,1728
8850,1840
8854,1941
8858,1939
8862,1872
8866,1903
8870,2016
8874,2080
8878,2009
8882,1931
8886,1998
8890,2160
8894,2287
8898,2259
8902,2128
8906,2070
8910,2107
8914,2094
8918,1958
8922,1778
8926,1740
8930,1815
8934,1845
8938,1764
8942,1645
8946,1645
8950,1744
8954,1795
8958,1735
8962,1618
8966,1618
8970,1716
8974,1780
8978,1730
8982,1605
8986,1610
8990,1725
8994,1791
8998,1725
9002,1600
9006,1535
9010,1529
9014,1477
9018,1356
9022,1205
9026,1283
9030,1918
9034,2751
9038,3710
9042,4095
9046,4095
9050,4095
9054,3328
9058,2314
9062,1668
9066,1455
9070,1559
9074,1722
9078,1727
9082,1609
9086,1571
9090,1638
9094,1664
9098,1603
9102,1495
9106,1491
9110,1600
9114,1647
9118,1583
9122,1479
9126,1494
9130,1612
9134,1668
9138,1600
9142,1489
9146,1503
9150,1621
9154,1682
9158,1627
9162,1513
9166,1517
9170,1641
9174,1702
9178,1648
9182,1535
9186,1531
9190,1651
9194,1698
9198,1646
9202,1555
9206,1565
9210,1676
9214,1720
9218,1665
9222,1535
9226,1557
9230,1673
9234,1718
9238,1638
9242,1527
9246,1553
9250,1667
9254,1712
9258,1641
9262,1531
9266,1562
9270,1674
9274,1723
9278,1662
9282,1557
9286,1585
9290,1714
9294,1776
9298,1721
9302,1634
9306,1673
9310,1808
9314,1875
9318,1830
9322,1750
9326,1778
9330,1909
9334,1961
9338,1889
9342,1782
9346,1806
9350,1919
9354,1952
9358,1880
9362,1784
9366,1795
9370,1908
9374,1948
9378,1875
9382,1783
9386,1799
9390,1919
9394,1958
9398,1881
9402,1787
9406,1791
9410,1913
9414,1954
9418,1889
9422,1795
9426,1814
9430,1929
9434,1959
9438,1893
9442,1801
9446,1802
9450,1927
9454,1962
9458,1886
9462,1788
9466,1812
9470,1956
9474,1981
9478,1881
9482,1776
9486,1793
9490,1911
9494,1950
9498,1873
9502,1776
9506,1798
9510,1920
9514,1954
9518,1872
9522,1771
9526,1793
9530,1913
9534,1936
9538,1855
9542,1761
9546,1777
9550,1898
9554,1927
9558,1852
9562,1760
9566,1777
9570,1881
9574,1904
9578,1828
9582,1739
9586,1773
9590,1887
9594,1910
9598,1826
9602,1731
9606,1759
9610,1877
9614,1904
9618,1819
9622,1731
9626,1757
9630,1874
9634,1904
9638,1830
9642,1744
9646,1772
9650,1891
9654,1907
9658,1825
9662,1734
9666,1759
9670,1877
9674,1906
9678,1824
9682,1733
9686,1760
9690,1890
9694,1911
9698,1823
9702,1734
9706,1763
9710,1883
9714,1913
9718,1837
9722,1746
9726,1776
9730,1901
9734,1936
9738,1889
9742,1842
9746,1902
9750,2045
9754,2071
9758,1969
9762,1916
9766,2015
9770,2214
9774,2254
9778,2139
9782,2011
9786,1999
9790,2068
9794,2029
9798,1902
9802,1781
9806,1776
9810,1869
9814,1871
9818,1778
9822,1685
9826,1710
9830,1821
9834,1839
9838,1745
9842,1662
9846,1690
9850,1807
9854,1826
9858,1743
9862,1654
9866,1691
9870,1822
9874,1831
9878,1743
9882,1648
9886,1625
9890,1639
9894,1527
9898,1355
9902,1233
9906,1288
9910,1809
9914,2500
9918,3293
9922,4095
9926,4095
9930,4021
9934,3033
9938,2224
9942,1754
9946,1649
9950,1696
9954,1703
9958,1648
9962,1600
9966,1609
9970,1712
9974,1702
9978,1596
9982,1500
9986,1556
9990,1692
9994,1701
9998,1607
10002,1526
10006,1568
10010,1694
10014,1703
10018,1601
10022,1535
10026,1598
10030,1722
10034,1731
10038,1632
10042,1559
10046,1601
10050,1728
10054,1744
10058,1655
10062,1593
10066,1637
10070,1751
10074,1757
10078,1663
10082,1594
10086,1639
10090,1765
10094,1767
10098,1667
10102,1600
10106,1643
10110,1763
10114,1764
10118,1664
10122,1599
10126,1648
10130,1772
10134,1777
10138,1689
10142,1618
10146,1668
10150,1795
10154,1799
10158,1712
10162,1658
10166,1715
10170,1855
10174,1866
10178,1783
10182,1733
10186,1803
10190,1937
10194,1948
10198,1866
10202,1819
10206,1866
10210,1988
10214,1990
10218,1887
10222,1826
10226,1877
10230,2001
10234,2002
10238,1899
10242,1823
10246,1869
10250,1984
10254,1971
10258,1858
10262,1792
10266,1843
10270,1965
10274,1964
10278,1863
10282,1792
10286,1840
10290,1966
10294,1957
10298,1865
10302,1805
10306,1847
10310,1967
10314,1957
10318,1855
10322,1783
10326,1833
10330,1947
10334,1946
10338,1845
10342,1783
10346,1831
10350,1945
10354,1936
10358,1831
10362,1776
10366,1831
10370,1943
10374,1934
10378,1821
10382,1761
10386,1824
10390,1943
10394,1931
10398,1823
10402,1759
10406,1824
10410,1926
10414,1918
10418,1807
10422,1746
10426,1811
10430,1938
10434,1926
10438,1814
10442,1760
10446,1807
10450,1915
10454,1909
10458,1809
10462,1753
10466,1812
10470,1924
10474,1902
10478,1790
10482,1738
10486,1787
10490,1907
10494,1885
10498,1781
10502,1719
10506,1776
10510,1904
10514,1908
10518,1793
10522,1743
10526,1776
10530,1907
10534,1891
10538,1791
10542,1738
10546,1798
10550,1914
10554,1894
10558,1779
10562,1719
10566,1808
10570,1911
10574,1898
10578,1781
10582,1739
10586,1803
10590,1914
10594,1901
10598,1778
10602,1737
10606,1820
10610,1957
10614,1989
10618,1923
10622,1882
10626,1939
10630,2043
10634,2047
10638,2000
10642,2032
10646,2118
10650,2215
10654,2171
10658,2014
10662,1911
10666,1926
10670,1984
10674,1920
10678,1772
10682,1705
10686,1768
10690,1871
10694,1837
10698,1712
10702,1655
10706,1715
10710,1818
10714,1797
10718,1680
10722,1638
10726,1712
10730,1813
10734,1782
10738,1674
10742,1632
10746,1698
10750,1805
10754,1779
10758,1647
10762,1514
10766,1463
10770,1459
10774,1381
10778,1221
10782,1456
10786,2236
10790,3194
10794,4095
10798,4095
10802,4095
10806,3959
10810,2937
10814,2128
10818,1626
10822,1431
10826,1535
10830,1744
10834,1747
10838,1614
10842,1532
10846,1584
10850,1670
10854,1635
10858,1510
10862,1470
10866,1535
10870,1648
10874,1624
10878,1506
10882,1472
10886,1562
10890,1663
10894,1638
10898,1520
10902,1478
10906,1562
10910,1670
10914,1648
10918,1533
10922,1505
10926,1582
10930,1680
10934,1651
10938,1535
10942,1519
10946,1607
10950,1701
10954,1674
10958,1559
10962,1520
10966,1607
10970,1712
10974,1685
10978,1569
10982,1521
10986,1601
10990,1687
10994,1661
10998,1535
11002,1520
11006,1603
11010,1699
11014,1665
11018,1535
11022,1521
11026,1616
11030,1715
11034,1690
11038,1584
11042,1567
11046,1661
11050,1772
11054,1757
11058,1664
11062,1661
11066,1754
11070,1862
11074,1846
11078,1759
11082,1749
11086,1841
11090,1942
11094,1915
11098,1807
11102,1778
11106,1865
11110,1946
11114,1905
11118,1791
11122,1759
11126,1843
11130,1935
11134,1904
11138,1783
11142,1754
11146,1835
11150,1924
11154,1897
11158,1782
11162,1759
11166,1845
11170,1930
11174,1897
11178,1780
11182,1755
11186,1842
11190,1930
11194,1899
11198,1782
11202,1762
11206,1847
11210,1936
11214,1899
11218,1780
11222,1759
11226,1856
11230,1941
11234,1906
11238,1793
11242,1771
11246,1855
11250,1933
11254,1891
11258,1776
11262,1766
11266,1861
11270,1939
11274,1897
11278,1776
11282,1759
11286,1849
11290,1920
11294,1875
11298,1760
11302,1747
11306,1847
11310,1925
11314,1879
11318,1759
11322,1744
11326,1838
11330,1909
11334,1867
11338,1759
11342,1747
11346,1840
11350,1906
11354,1862
11358,1750
11362,1750
11366,1843
11370,1927
11374,1883
11378,1761
11382,1744
11386,1837
11390,1914
11394,1872
11398,1760
11402,1745
11406,1846
11410,1924
11414,1877
11418,1767
11422,1747
11426,1840
11430,1908
11434,1870
11438,1756
11442,1745
11446,1847
11450,1921
11454,1874
11458,1746
11462,1727
11466,1811
11470,1885
11474,1843
11478,1727
11482,1717
11486,1823
11490,1894
11494,1843
11498,1734
11502,1731
11506,1831
11510,1921
11514,1913
11518,1834
11522,1843
11526,1949
11530,2002
11534,1991
11538,1939
11542,2002
11546,2127
11550,2180
11554,2103
11558,1956
11562,1907
11566,1950
11570,1967
11574,1875
11578,1731
11582,1698
11586,1794
11590,1855
11594,1795
11598,1679
11602,1665
11606,1760
11610,1815
11614,1751
11618,1641
11622,1641
11626,1744
11630,1812
11634,1762
11638,1648
11642,1648
11646,1754
11650,1811
11654,1746
11658,1598
11662,1499
11666,1490
11670,1455
11674,1344
11678,1201
11682,1411
11686,2125
11690,2965
11694,4045
11698,4095
11702,4037
11706,3230
11710,2558
11714,2015
11718,1692
11722,1600
11726,1652
11730,1716
11734,1695
11738,1603
11742,1584
11746,1668
11750,1707
11754,1632
11758,1514
11762,1525
11766,1650
11770,1707
11774,1634
11778,1509
11782,1519
11786,1641
11790,1703
11794,1651
11798,1535
11802,1535
11806,1653
11810,1707
11814,1655
11818,1562
11822,1580
11826,1682
11830,1716
11834,1661
11838,1569
11842,1585
11846,1703
11850,1744
11854,1678
11858,1574
11862,1595
11866,1709
11870,1749
11874,1673
11878,1562
11882,1578
11886,1691
11890,1744
11894,1691
11898,1584
11902,1579
11906,1683
11910,1739
11914,1680
11918,1578
11922,1595
11926,1728
11930,1797
11934,1738
11938,1638
11942,1655
11946,1790
11950,1849
11954,1798
11958,1702
11962,1738
11966,1872
11970,1936
11974,1877
11978,1780
11982,1807
11986,1932
11990,1974
11994,1910
11998,1798
12002,1806
12006,1919
12010,1971
12014,1904
12018,1794
12022,1802
12026,1915
12030,1965
12034,1901
12038,1793
12042,1808
12046,1922
12050,1963
12054,1886
12058,1785
12062,1802
12066,1920
12070,1966
12074,1904
12078,1801
12082,1808
12086,1922
12090,1968
12094,1898
12098,1791
12102,1805
12106,1933
12110,1973
12114,1904
12118,1797
12122,1810
12126,1923
12130,1955
12134,1880
12138,1783
12142,1805
12146,1920
12150,1968
12154,1899
12158,1807
12162,1822
12166,1925
12170,1962
12174,1887
12178,1795
12182,1823
12186,1941
12190,1974
12194,1893
12198,1791
12202,1819
12206,1941
12210,1969
12214,1898
12218,1797
12222,1821
12226,1936
12230,1963
12234,1886
12238,1793
12242,1815
12246,1936
12250,1968
12254,1893
12258,1795
12262,1815
12266,1936
12270,1966
12274,1883
12278,1781
12282,1799
12286,1918
12290,1953
12294,1885
12298,1791
12302,1804
12306,1923
12310,1952
12314,1878
12318,1782
12322,1808
12326,1927
12330,1957
12334,1873
12338,1776
12342,1797
12346,1923
12350,1964
12354,1904
12358,1842
12362,1904
12366,2055
12370,2096
12374,2015
12378,1925
12382,1984
12386,2181
12390,2257
12394,2179
12398,2062
12402,2057
12406,2135
12410,2112
12414,1974
12418,1837
12422,1819
12426,1904
12430,1909
12434,1815
12438,1722
12442,1723
12446,1833
12450,1847
12454,1763
12458,1691
12462,1715
12466,1827
12470,1843
12474,1743
12478,1664
12482,1691
12486,1810
12490,1840
12494,1756
12498,1667
12502,1690
12506,1797
12510,1737
12514,1520
12518,1328
12522,1303
12526,1395
12530,1535
12534,2017
12538,2710
12542,3794
12546,4095
12550,4095
12554,3910
12558,2789
12562,2032
12566,1767
12570,1661
12574,1554
12578,1523
12582,1625
12586,1747
12590,1740
12594,1617
12598,1515
12602,1526
12606,1654
12610,1678
12614,1591
12618,1489
12622,1535
12626,1667
12630,1677
12634,1590
12638,1498
12642,1535
12646,1669
12650,1694
12654,1614
12658,1529
12662,1577
12666,1709
12670,1732
12674,1646
12678,1566
12682,1600
12686,1713
12690,1726
12694,1646
12698,1571
12702,1612
12706,1735
12710,1747
12714,1664
12718,1583
12722,1616
12726,1742
12730,1747
12734,1653
12738,1581
12742,1622
12746,1744
12750,1749
12754,1659
12758,1587
12762,1629
12766,1758
12770,1770
12774,1682
12778,1616
12782,1674
12786,1808
12790,1816
12794,1723
12798,1656
12802,1712
12806,1850
12810,1885
12814,1809
12818,1744
12822,1799
12826,1936
12830,1954
12834,1859
12838,1790
12842,1838
12846,1955
12850,1954
12854,1843
12858,1774
12862,1819
12866,1936
12870,1931
12874,1830
12878,1755
12882,1799
12886,1909
12890,1911
12894,1821
12898,1757
12902,1804
12906,1922
12910,1931
12914,1839
12918,1761
12922,1799
12926,1918
12930,1925
12934,1838
12938,1764
12942,1802
12946,1925
12950,1931
12954,1833
12958,1749
12962,1791
12966,1910
12970,1917
12974,1813
12978,1751
12982,1792
12986,1904
12990,1903
12994,1801
12998,1733
13002,1782
13006,1909
13010,1916
13014,1808
13018,1737
13022,1780
13026,1899
13030,1902
13034,1799
13038,1733
13042,1779
13046,1899
13050,1893
13054,1791
13058,1723
13062,1771
13066,1892
13070,1886
13074,1778
13078,1710
13082,1763
13086,1882
13090,1877
13094,1776
13098,1710
13102,1765
13106,1888
13110,1879
13114,1771
13118,1706
13122,1762
13126,1888
13130,1890
13134,1786
13138,1723
13142,1775
13146,1889
13150,1877
13154,1782
13158,1737
13162,1788
13166,1899
13170,1884
13174,1776
13178,1712
13182,1776
13186,1893
13190,1889
13194,1787
13198,1733
13202,1782
13206,1904
13210,1890
13214,1775
13218,1715
13222,1779
13226,1895
13230,1877
13234,1766
13238,1712
13242,1775
13246,1899
13250,1888
13254,1778
13258,1717
13262,1773
13266,1893
13270,1895
13274,1790
13278,1731
13282,1783
13286,1907
13290,1921
13294,1857
13298,1851
13302,1936
13306,2056
13310,2034
13314,1940
13318,1945
13322,2089
13326,2240
13330,2228
13334,2081
13338,1979
13342,1985
13346,2047
13350,1984
13354,1833
13358,1746
13362,1777
13366,1871
13370,1840
13374,1715
13378,1664
13382,1717
13386,1831
13390,1808
13394,1697
13398,1645
13402,1694
13406,1807
13410,1791
13414,1680
13418,1637
13422,1703
13426,1808
13430,1786
13434,1675
13438,1610
13442,1597
13446,1595
13450,1472
13454,1325
13458,1259
13462,1530
13466,2283
13470,3056
13474,4059
13478,4095
13482,4095
13486,4095
13490,3023
13494,2085
13498,1607
13502,1503
13506,1632
13510,1710
13514,1648
13518,1584
13522,1609
13526,1681
13530,1648
13534,1531
13538,1490
13542,1561
13546,1671
13550,1650
13554,1531
13558,1488
13562,1559
13566,1667
13570,1659
13574,1535
13578,1499
13582,1580
13586,1691
13590,1670
13594,1565
13598,1522
13602,1602
13606,1711
13610,1693
13614,1584
13618,1535
13622,1616
13626,1726
13630,1703
13634,1595
13638,1569
13642,1648
13646,1745
13650,1709
13654,1584
13658,1535
13662,1616
13666,1726
13670,1702
13674,1587
13678,1535
13682,1615
13686,1713
13690,1685
13694,1571
13698,1534
13702,1620
13706,1723
13710,1698
13714,1600
13718,1577
13722,1663
13726,1775
13730,1749
13734,1648
13738,1641
13742,1741
13746,1856
13750,1847
13754,1759
13758,1743
13762,1832
13766,1941
13770,1918
13774,1806
13778,1772
13782,1841
13786,1936
13790,1910
13794,1807
13798,1776
13802,1843
13806,1936
13810,1898
13814,1780
13818,1751
13822,1824
13826,1921
13830,1894
13834,1791
13838,1774
13842,1848
13846,1922
13850,1885
13854,1776
13858,1757
13862,1845
13866,1938
13870,1906
13874,1803
13878,1769
13882,1843
13886,1935
13890,1898
13894,1790
13898,1761
13902,1849
13906,1942
13910,1914
13914,1790
13918,1760
13922,1841
13926,1938
13930,1907
13934,1796
13938,1757
13942,1838
13946,1932
13950,1903
13954,1776
13958,1744
13962,1840
13966,1936
13970,1904
13974,1769
13978,1734
13982,1826
13986,1933
13990,1894
13994,1770
13998,1740
14002,1839
14006,1933
14010,1889
14014,1773
14018,1750
14022,1840
14026,1934
14030,1903
14034,1770
14038,1744
14042,1831
14046,1911
14050,1873
14054,1770
14058,1748
14062,1835
14066,1925
14070,1889
14074,1763
14078,1739
14082,1838
14086,1931
14090,1904
14094,1786
14098,1755
14102,1837
14106,1919
14110,1890
14114,1776
14118,1755
14122,1858
14126,1943
14130,1899
14134,1782
14138,1774
14142,1861
14146,1936
14150,1894
14154,1776
14158,1763
14162,1852
14166,1929
14170,1891
14174,1776
14178,1774
14182,1860
14186,1943
14190,1909
14194,1790
14198,1761
14202,1856
14206,1950
14210,1913
14214,1798
14218,1787
14222,1891
14226,1994
14230,1985
14234,1889
14238,1879
14242,1985
14246,2068
14250,2047
14254,2000
14258,2055
14262,2173
14266,2253
14270,2189
14274,2015
14278,1952
14282,2000
14286,2019
14290,1943
14294,1802
14298,1771
14302,1852
14306,1919
14310,1869
14314,1740
14318,1721
14322,1811
14326,1873
14330,1825
14334,1709
14338,1703
14342,1797
14346,1863
14350,1814
14354,1709
14358,1689
14362,1785
14366,1857
14370,1801
14374,1632
14378,1535
14382,1535
14386,1535
14390,1424
14394,1294
14398,1463
14402,2122
14406,2960
14410,4053
14414,4095
14418,4095
14422,3283
14426,2559
14430,1995
14434,1653
14438,1584
14442,1650
14446,1719
14450,1714
14454,1631
14458,1619
14462,1700
14466,1749
14470,1697
14474,1581
14478,1570
14482,1679
14486,1754
14490,1702
14494,1592
14498,1586
14502,1681
14506,1745
14510,1703
14514,1600
14518,1603
14522,1701
14526,1776
14530,1730
14534,1616
14538,1616
14542,1722
14546,1787
14550,1732
14554,1621
14558,1629
14562,1744
14566,1809
14570,1760
14574,1649
14578,1648
14582,1759
14586,1824
14590,1771
14594,1659
14598,1660
14602,1763
14606,1825
14610,1765
14614,1658
14618,1654
14622,1766
14626,1833
14630,1794
14634,1680
14638,1680
14642,1790
14646,1852
14650,1803
14654,1697
14658,1713
14662,1834
14666,1911
14670,1870
14674,1767
14678,1787
14682,1913
14686,1994
14690,1952
14694,1846
14698,1842
14702,1953
14706,2015
14710,1954
14714,1839
14718,1837
14722,1935
14726,1983
14730,1909
14734,1791
14738,1792
14742,1904
14746,1954
14750,1888
14754,1776
14758,1779
14762,1889
14766,1942
14770,1899
14774,1773
14778,1766
14782,1872
14786,1929
14790,1877
14794,1767
14798,1767
14802,1875
14806,1933
14810,1872
14814,1763
14818,1763
14822,1871
14826,1925
14830,1859
14834,1744
14838,1744
14842,1856
14846,1911
14850,1856
14854,1746
14858,1750
14862,1862
14866,1906
14870,1843
14874,1737
14878,1747
14882,1862
14886,1915
14890,1849
14894,1734
14898,1747
14902,1872
14906,1914
14910,1838
14914,1729
14918,1744
14922,1866
14926,1918
14930,1856
14934,1742
14938,1737
14942,1858
14946,1921
14950,1858
14954,1730
14958,1726
14962,1835
14966,1871
14970,1802
14974,1694
14978,1705
14982,1826
14986,1872
14990,1801
14994,1692
14998,1702
15002,1824
15006,1872
15010,1808
15014,1698
15018,1709
15022,1833
15026,1887
15030,1822
15034,1712
15038,1723
15042,1845
15046,1899
15050,1833
15054,1722
15058,1739
15062,1861
15066,1907
15070,1839
15074,1727
15078,1745
15082,1869
15086,1913
15090,1840
15094,1731
15098,1746
15102,1867
15106,1904
15110,1831
15114,1728
15118,1742
15122,1861
15126,1904
15130,1837
15134,1758
15138,1821
15142,1985
15146,2064
15150,1989
15154,1874
15158,1889
15162,2064
15166,2192
15170,2170
15174,2064
15178,2047
15182,2127
15186,2117
15190,1984
15194,1822
15198,1783
15202,1883
15206,1901
15210,1803
15214,1683
15218,1694
15222,1807
15226,1833
15230,1744
15234,1634
15238,1652
15242,1776
15246,1807
15250,1727
15254,1615
15258,1631
15262,1758
15266,1804
15270,1742
15274,1647
15278,1648
15282,1742
15286,1687
15290,1488
15294,1318
15298,1319
15302,1438
15306,1769
15310,2369
15314,3088
15318,4095
15322,4095
15326,4095
15330,3856
15334,2617
15338,1839
15342,1621
15346,1574
15350,1567
15354,1583
15358,1638
15362,1733
15366,1724
15370,1603
15374,1480
15378,1504
15382,1641
15386,1671
15390,1588
15394,1477
15398,1503
15402,1643
15406,1678
15410,1597
15414,1493
15418,1520
15422,1663
15426,1696
15430,1615
15434,1520
15438,1535
15442,1667
15446,1693
15450,1614
15454,1530
15458,1561
15462,1703
15466,1730
15470,1646
15474,1535
15478,1587
15482,1723
15486,1747
15490,1667
15494,1581
15498,1599
15502,1722
15506,1744
15510,1661
15514,1577
15518,1610
15522,1744
15526,1771
15530,1680
15534,1596
15538,1625
15542,1758
15546,1790
15550,1712
15554,1625
15558,1660
15562,1804
15566,1840
15570,1761
15574,1680
15578,1729
15582,1873
15586,1914
15590,1840
15594,1765
15598,1815
15602,1956
15606,1974
15610,1882
15614,1793
15618,1825
15622,1952
15626,1957
15630,1857
15634,1764
15638,1797
15642,1922
15646,1936
15650,1837
15654,1739
15658,1776
15662,1904
15666,1911
15670,1817
15674,1726
15678,1753
15682,1894
15686,1916
15690,1810
15694,1721
15698,1758
15702,1899
15706,1903
15710,1807
15714,1726
15718,1771
15722,1904
15726,1919
15730,1820
15734,1726
15738,1770
15742,1913
15746,1924
15750,1820
15754,1741
15758,1776
15762,1907
15766,1910
15770,1819
15774,1731
15778,1772
15782,1904
15786,1916
15790,1811
15794,1713
15798,1751
15802,1879
15806,1904
15810,1789
15814,1721
15818,1760
15822,1891
15826,1892
15830,1802
15834,1712
15838,1751
15842,1879
15846,1891
15850,1783
15854,1701
15858,1735
15862,1882
15866,1895
15870,1781
15874,1699
15878,1752
15882,1879
15886,1887
15890,1792
15894,1708
15898,1749
15902,1882
15906,1881
15910,1777
15914,1691
15918,1742
15922,1882
15926,1888
15930,1783
15934,1701
15938,1744
15942,1873
15946,1887
15950,1783
15954,1701
15958,1743
15962,1873
15966,1889
15970,1791
15974,1713
15978,1755
15982,1888
15986,1895
15990,1783
15994,1706
15998,1745
16002,1883
16006,1892
16010,1787
16014,1705
16018,1761
16022,1883
16026,1883
16030,1783
16034,1723
16038,1777
16042,1931
16046,1984
16050,1925
16054,1869
16058,1904
16062,2026
16066,2032
16070,1985
16074,1998
16078,2101
16082,2238
16086,2209
16090,2055
16094,1919
16098,1907
16102,1984
16106,1936
16110,1798
16114,1701
16118,1735
16122,1844
16126,1825
16130,1715
16134,1638
16138,1682
16142,1808
16146,1808
16150,1695
16154,1616
16158,1667
16162,1806
16166,1802
16170,1690
16174,1619
16178,1679
16182,1814
16186,1808
16190,1662
16194,1489
16198,1426
16202,1475
16206,1450
16210,1328
16214,1569
16218,2331
16222,3344
16226,4095
16230,4095
16234,4095
16238,3933
16242,2865
16246,2038
16250,1569
16254,1409
16258,1532
16262,1774
16266,1792
16270,1646
16274,1533
16278,1568
16282,1687
16286,1680
16290,1566
16294,1489
16298,1535
16302,1673
16306,1669
16310,1554
16314,1488
16318,1535
16322,1680
16326,1677
16330,1566
16334,1501
16338,1574
16342,1698
16346,1690
16350,1579
16354,1509
16358,1584
16362,1713
16366,1712
16370,1600
16374,1533
16378,1603
16382,1737
16386,1728
16390,1613
16394,1535
16398,1605
16402,1740
16406,1734
16410,1616
16414,1557
16418,1618
16422,1743
16426,1717
16430,1606
16434,1535
16438,1620
16442,1745
16446,1730
16450,1625
16454,1570
16458,1635
16462,1765
16466,1761
16470,1653
16474,1600
16478,1681
16482,1823
16486,1826
16490,1730
16494,1691
16498,1776
16502,1915
16506,1918
16510,1823
16514,1779
16518,1840
16522,1968
16526,1952
16530,1840
16534,1789
16538,1840
16542,1949
16546,1920
16550,1806
16554,1743
16558,1805
16562,1926
16566,1913
16570,1792
16574,1735
16578,1803
16582,1929
16586,1914
16590,1794
16594,1739
16598,1806
16602,1925
16606,1915
16610,1803
16614,1755
16618,1823
16622,1936
16626,1911
16630,1793
16634,1744
16638,1810
16642,1931
16646,1917
16650,1802
16654,1746
16658,1808
16662,1923
16666,1907
16670,1791
16674,1739
16678,1808
16682,1923
16686,1911
16690,1790
16694,1733
16698,1807
16702,1918
16706,1904
16710,1785
16714,1738
16718,1808
16722,1924
16726,1904
16730,1777
16734,1727
16738,1797
16742,1919
16746,1901
16750,1779
16754,1740
16758,1813
16762,1924
16766,1899
16770,1776
16774,1725
16778,1798
16782,1919
16786,1898
16790,1775
16794,1723
16798,1791
16802,1901
16806,1861
16810,1754
16814,1712
16818,1795
16822,1908
16826,1889
16830,1773
16834,1723
16838,1791
16842,1907
16846,1885
16850,1770
16854,1723
16858,1798
16862,1907
16866,1881
16870,1761
16874,1700
16878,1797
16882,1908
16886,1879
16890,1776
16894,1729
16898,1803
16902,1905
16906,1882
16910,1766
16914,1728
16918,1808
16922,1911
16926,1889
16930,1786
16934,1783
16938,1915
16942,2061
16946,2035
16950,1910
16954,1857
16958,1969
16962,2160
16966,2195
16970,2107
16974,2062
16978,2095
16982,2151
16986,2073
16990,1888
16994,1785
16998,1827
17002,1907
17006,1861
17010,1723
17014,1666
17018,1737
17022,1835
17026,1799
17030,1678
17034,1638
17038,1726
17042,1823
17046,1790
17050,1665
17054,1635
17058,1721
17062,1820
17066,1786
17070,1665
17074,1635
17078,1701
17082,1727
17086,1573
17090,1333
17094,1238
17098,1294
17102,1526
17106,2070
17110,2731
17114,3727
17118,4095
17122,4095
17126,4095
17130,3071
17134,2160
17138,1745
17142,1655
17146,1616
17150,1582
17154,1587
17158,1663
17162,1737
17166,1669
17170,1517
17174,1479
17178,1580
17182,1677
17186,1642
17190,1512
17194,1476
17198,1574
17202,1675
17206,1649
17210,1520
17214,1488
17218,1584
17222,1686
17226,1650
17230,1522
17234,1504
17238,1607
17242,1712
17246,1671
17250,1535
17254,1521
17258,1622
17262,1727
17266,1689
17270,1566
17274,1535
17278,1631
17282,1734
17286,1701
17290,1571
17294,1535
17298,1635
17302,1735
17306,1691
17310,1568
17314,1534
17318,1629
17322,1719
17326,1680
17330,1555
17334,1529
17338,1634
17342,1734
17346,1697
17350,1580
17354,1559
17358,1657
17362,1761
17366,1730
17370,1616
17374,1606
17378,1720
17382,1837
17386,1825
17390,1722
17394,1723
17398,1833
17402,1938
17406,1915
17410,1795
17414,1776
17418,1876
17422,1974
17426,1936
17430,1802
17434,1776
17438,1873
17442,1961
17446,1907
17450,1781
17454,1759
17458,1856
17462,1948
17466,1911
17470,1785
17474,1761
17478,1852
17482,1937
17486,1898
17490,1776
17494,1762
17498,1856
17502,1946
17506,1904
17510,1781
17514,1770
17518,1858
17522,1946
17526,1899
17530,1777
17534,1761
17538,1857
17542,1941
17546,1905
17550,1776
17554,1756
17558,1854
17562,1946
17566,1908
17570,1782
17574,1765
17578,1862
17582,1938
17586,1891
17590,1759
17594,1746
17598,1856
17602,1939
17606,1893
17610,1762
17614,1741
17618,1852
17622,1945
17626,1895
17630,1760
17634,1744
17638,1847
17642,1936
17646,1899
17650,1776
17654,1759
17658,1856
17662,1931
17666,1878
17670,1761
17674,1747
17678,1847
17682,1938
17686,1897
17690,1776
17694,1759
17698,1853
17702,1930
17706,1878
17710,1757
17714,1744
17718,1856
17722,1942
17726,1895
17730,1769
17734,1750
17738,1842
17742,1920
17746,1874
17750,1754
17754,1746
17758,1856
17762,1931
17766,1875
17770,1753
17774,1745
17778,1849
17782,1923
17786,1873
17790,1759
17794,1758
17798,1868
17802,1949
17806,1898
17810,1760
17814,1744
17818,1863
17822,1968
17826,1950
17830,1862
17834,1871
17838,1973
17842,2054
17846,2009
17850,1943
17854,2006
17858,2165
17862,2263
17866,2192
17870,2030
17874,1971
17878,2009
17882,2022
17886,1932
17890,1773
17894,1763
17898,1840
17902,1909
17906,1841
17910,1710
17914,1690
17918,1795
17922,1875
17926,1799
17930,1694
17934,1680
17938,1798
17942,1870
17946,1818
17950,1712
17954,1706
17958,1804
17962,1877
17966,1811
17970,1643
17974,1535
17978,1530
17982,1516
17986,1418
17990,1311
17994,1613
17998,2333
18002,3230
18006,4095
18010,4095
18014,3789
18018,3083
18022,2523
18026,2082
18030,1793
18034,1694
18038,1724
18042,1757
18046,1722
18050,1626
18054,1615
18058,1703
18062,1754
18066,1685
18070,1563
18074,1575
18078,1686
18082,1767
18086,1703
18090,1579
18094,1584
18098,1699
18102,1767
18106,1712
18110,1588
18114,1594
18118,1711
18122,1775
18126,1718
18130,1605
18134,1613
18138,1727
18142,1786
18146,1724
18150,1616
18154,1622
18158,1743
18162,1808
18166,1755
18170,1633
18174,1632
18178,1744
18182,1808
18186,1744
18190,1629
18194,1635
18198,1751
18202,1808
18206,1744
18210,1619
18214,1618
18218,1738
18222,1801
18226,1738
18230,1626
18234,1636
18238,1760
18242,1836
18246,1776
18250,1664
18254,1680
18258,1808
18262,1877
18266,1829
18270,1730
18274,1761
18278,1897
18282,1973
18286,1922
18290,1813
18294,1826
18298,1937
18302,1989
18306,1926
18310,1809
18314,1817
18318,1929
18322,1977
18326,1907
18330,1795
18334,1806
18338,1906
18342,1956
18346,1902
18350,1783
18354,1793
18358,1904
18362,1953
18366,1881
18370,1766
18374,1776
18378,1894
18382,1941
18386,1872
18390,1763
18394,1783
18398,1891
18402,1935
18406,1873
18410,1760
18414,1765
18418,1879
18422,1926
18426,1840
18430,1734
18434,1760
18438,1886
18442,1926
18446,1855
18450,1744
18454,1760
18458,1874
18462,1909
18466,1834
18470,1728
18474,1740
18478,1867
18482,1910
18486,1840
18490,1732
18494,1749
18498,1870
18502,1917
18506,1843
18510,1726
18514,1739
18518,1865
18522,1914
18526,1847
18530,1733
18534,1739
18538,1862
18542,1913
18546,1846
18550,1726
18554,1737
18558,1858
18562,1904
18566,1831
18570,1712
18574,1730
18578,1857
18582,1907
18586,1837
18590,1722
18594,1730
18598,1855
18602,1902
18606,1824
18610,1711
18614,1725
18618,1857
18622,1909
18626,1831
18630,1712
18634,1730
18638,1853
18642,1893
18646,1821
18650,1718
18654,1744
18658,1862
18662,1906
18666,1831
18670,1715
18674,1730
18678,1862
18682,1904
18686,1837
18690,1740
18694,1780
18698,1942
18702,2028
18706,1975
18710,1872
18714,1881
18718,2000
18722,2092
18726,2098
18730,2034
18734,2065
18738,2165
18742,2169
18746,2039
18750,1878
18754,1839
18758,1911
18762,1915
18766,1808
18770,1687
18774,1697
18778,1819
18782,1845
18786,1759
18790,1645
18794,1663
18798,1781
18802,1808
18806,1728
18810,1617
18814,1648
18818,1771
18822,1797
18826,1719
18830,1616
18834,1637
18838,1755
18842,1751
18846,1553
18850,1318
18854,1251
18858,1334
18862,1389
18866,1705
18870,2326
18874,3215
18878,4095
18882,4095
18886,4095
18890,3455
18894,2495
18898,1972
18902,1742
18906,1564
18910,1483
18914,1584
18918,1734
18922,1743
18926,1619
18930,1490
18934,1505
18938,1641
18942,1663
18946,1583
18950,1453
18954,1470
18958,1618
18962,1661
18966,1584
18970,1474
18974,1492
18978,1631
18982,1661
18986,1595
18990,1475
18994,1504
18998,1643
19002,1669
19006,1587
19010,1488
19014,1518
19018,1652
19022,1689
19026,1607
19030,1513
19034,1535
19038,1673
19042,1707
19046,1622
19050,1527
19054,1561
19058,1680
19062,1710
19066,1626
19070,1520
19074,1535
19078,1662
19082,1687
19086,1606
19090,1503
19094,1527
19098,1661
19102,1699
19106,1619
19110,1521
19114,1555
19118,1690
19122,1735
19126,1667
19130,1591
19134,1630
19138,1763
19142,1805
19146,1734
19150,1671
19154,1715
19158,1842
19162,1877
19166,1820
19170,1750
19174,1782
19178,1896
19182,1917
19186,1840
19190,1767
19194,1781
19198,1883
19202,1906
19206,1840
19210,1758
19214,1776
19218,1873
19222,1885
19226,1802
19230,1726
19234,1743
19238,1849
19242,1872
19246,1803
19250,1729
19254,1757
19258,1870
19262,1887
19266,1811
19270,1735
19274,1762
19278,1872
19282,1885
19286,1817
19290,1744
19294,1770
19298,1872
19302,1897
19306,1822
19310,1747
19314,1773
19318,1879
19322,1900
19326,1821
19330,1753
19334,1781
19338,1893
19342,1905
19346,1839
19350,1767
19354,1793
19358,1902
19362,1910
19366,1834
19370,1761
19374,1791
19378,1902
19382,1910
19386,1835
19390,1763
19394,1793
19398,1901
19402,1912
19406,1834
19410,1762
19414,1787
19418,1904
19422,1921
19426,1840
19430,1765
19434,1791
19438,1903
19442,1921
19446,1847
19450,1770
19454,1791
19458,1906
19462,1932
19466,1855
19470,1779
19474,1808
19478,1924
19482,1934
19486,1842
19490,1762
19494,1793
19498,1910
19502,1936
19506,1870
19510,1827
19514,1907
19518,2064
19522,2096
19526,2011
19530,1936
19534,1960
19538,2122
19542,2202
19546,2180
19550,2141
19554,2147
19558,2215
19562,2176
19566,2033
19570,1888
19574,1854
19578,1935
19582,1918
19586,1808
19590,1717
19594,1737
19598,1839
19602,1840
19606,1752
19610,1678
19614,1711
19618,1822
19622,1815
19626,1725
19630,1661
19634,1696
19638,1809
19642,1817
19646,1734
19650,1663
19654,1695
19658,1792
19662,1715
19666,1488
19670,1298
19674,1268
19678,1339
19682,1503
19686,2010
19690,2726
19694,3857
19698,4095
19702,4095
19706,4049
19710,2960
19714,2213
19718,1899
19722,1713
19726,1582
19730,1567
19734,1642
19738,1750
19742,1717
19746,1599
19750,1511
19754,1535
19758,1669
19762,1679
19766,1583
19770,1495
19774,1529
19778,1658
19782,1671
19786,1584
19790,1499
19794,1535
19798,1668
19802,1675
19806,1586
19810,1516
19814,1568
19818,1691
19822,1701
19826,1613
19830,1535
19834,1586
19838,1712
19842,1717
19846,1627
19850,1557
19854,1593
19858,1718
19862,1725
19866,1622
19870,1535
19874,1593
19878,1714
19882,1716
19886,1616
19890,1535
19894,1584
19898,1712
19902,1709
19906,1600
19910,1520
19914,1569
19918,1691
19922,1703
19926,1605
19930,1535
19934,1595
19938,1732
19942,1746
19946,1655
19950,1597
19954,1661
19958,1814
19962,1842
19966,1755
19970,1709
19974,1778
19978,1925
19982,1938
19986,1845
19990,1779
19994,1839
19998,1967
20002,1965
20006,1863
20010,1789
20014,1840
20018,1968
20022,1954
20026,1850
20030,1780
20034,1837
20038,1967
20042,1957
20046,1843
20050,1773
20054,1856
20058,1958
20062,1957
20066,1842
20070,1776
20074,1833
20078,1957
20082,1959
20086,1853
20090,1788
20094,1840
20098,1956
20102,1945
20106,1847
20110,1787
20114,1838
20118,1955
20122,1949
20126,1843
20130,1781
20134,1835
20138,1958
20142,1949
20146,1841
20150,1775
20154,1827
20158,1954
20162,1949
20166,1838
20170,1776
20174,1825
20178,1942
20182,1933
20186,1831
20190,1773
20194,1823
20198,1942
20202,1936
20206,1827
20210,1762
20214,1813
20218,1936
20222,1930
20226,1820
20230,1754
20234,1808
20238,1929
20242,1921
20246,1819
20250,1751
20254,1803
20258,1930
20262,1919
20266,1809
20270,1748
20274,1808
20278,1930
20282,1923
20286,1815
20290,1751
20294,1806
20298,1927
20302,1919
20306,1808
20310,1743
20314,1803
20318,1930
20322,1921
20326,1810
20330,1745
20334,1801
20338,1930
20342,1915
20346,1808
20350,1743
20354,1803
20358,1931
20362,1919
20366,1812
20370,1763
20374,1843
20378,2005
20382,2039
20386,1951
20390,1899
20394,1941
20398,2064
20402,2096
20406,2065
20410,2053
20414,2115
20418,2205
20422,2155
20426,1989
20430,1883
20434,1889
20438,1963
20442,1923
20446,1792
20450,1717
20454,1761
20458,1867
20462,1841
20466,1722
20470,1657
20474,1712
20478,1838
20482,1833
20486,1722
20490,1654
20494,1711
20498,1835
20502,1821
20506,1712
20510,1661
20514,1720
20518,1826
20522,1776
20526,1563
20530,1366
20534,1318
20538,1391
20542,1351
20546,1535
20550,2148
20554,3037
20558,4095
20562,4095
20566,4095
20570,3418
20574,2581
20578,2105
20582,1841
20586,1613
20590,1518
20594,1615
20598,1759
20602,1735
20606,1600
20610,1521
20614,1578
20618,1687
20622,1674
20626,1535
20630,1486
20634,1558
20638,1680
20642,1671
20646,1557
20650,1507
20654,1584
20658,1689
20662,1664
20666,1553
20670,1499
20674,1574
20678,1702
20682,1697
20686,1591
20690,1525
20694,1610
20698,1727
20702,1703
20706,1588
20710,1535
20714,1616
20718,1744
20722,1726
20726,1600
20730,1535
20734,1615
20738,1737
20742,1724
20746,1613
20750,1535
20754,1604
20758,1715
20762,1709
20766,1595
20770,1535
20774,1616
20778,1732
20782,1718
20786,1613
20790,1574
20794,1653
20798,1776
20802,1766
20806,1652
20810,1628
20814,1727
20818,1868
20822,1859
20826,1749
20830,1712
20834,1801
20838,1934
20842,1925
20846,1823
20850,1774
20854,1841
20858,1962
20862,1948
20866,1833
20870,1778
20874,1847
20878,1962
20882,1933
20886,1810
20890,1763
20894,1837
20898,1941
20902,1921
20906,1808
20910,1770
20914,1839
20918,1949
20922,1914
20926,1804
20930,1764
20934,1839
20938,1941
20942,1914
20946,1785
20950,1742
20954,1831
20958,1952
20962,1924
20966,1803
20970,1756
20974,1840
20978,1943
20982,1923
20986,1814
20990,1769
20994,1840
20998,1941
21002,1920
21006,1808
21010,1765
21014,1841
21018,1962
21022,1936
21026,1808
21030,1754
21034,1837
21038,1954
21042,1920
21046,1795
21050,1758
21054,1840
21058,1945
21062,1922
21066,1793
21070,1763
21074,1822
21078,1936
21082,1936
21086,1819
21090,1776
21094,1845
21098,1950
21102,1920
21106,1814
21110,1776
21114,1855
21118,1982
21122,1994
21126,1905
21130,1894
21134,1977
21138,2085
21142,2063
21146,1984
21150,2000
21154,2142
21158,2310
21162,2316
21166,2183
21170,2105
21174,2125
21178,2148
21182,2034
21186,1856
21190,1773
21194,1811
21198,1906
21202,1869
21206,1741
21210,1691
21214,1767
21218,1865
21222,1833
21226,1709
21230,1660
21234,1735
21238,1843
21242,1820
21246,1698
21250,1662
21254,1743
21258,1845
21262,1818
21266,1695
21270,1641
21274,1652
21278,1648
21282,1501
21286,1298
21290,1214
21294,1332
21298,1824
21302,2470
21306,3218
21310,4095
21314,4095
21318,3881
21322,2942
21326,2181
21330,1767
21334,1714
21338,1751
21342,1681
21346,1570
21350,1568
21354,1663
21358,1749
21362,1694
21366,1556
21370,1503
21374,1585
21378,1698
21382,1671
21386,1557
21390,1518
21394,1607
21398,1714
21402,1689
21406,1569
21410,1531
21414,1623
21418,1734
21422,1712
21426,1589
21430,1558
21434,1649
21438,1758
21442,1729
21446,1603
21450,1572
21454,1663
21458,1770
21462,1743
21466,1621
21470,1591
21474,1679
21478,1782
21482,1746
21486,1627
21490,1593
21494,1680
21498,1782
21502,1754
21506,1631
21510,1595
21514,1682
21518,1785
21522,1758
21526,1636
21530,1609
21534,1698
21538,1794
21542,1765
21546,1655
21550,1634
21554,1732
21558,1840
21562,1819
21566,1713
21570,1705
21574,1811
21578,1927
21582,1906
21586,1799
21590,1783
21594,1879
21598,1982
21602,1951
21606,1827
21610,1793
21614,1871
21618,1966
21622,1927
21626,1795
21630,1765
21634,1851
21638,1942
21642,1904
21646,1776
21650,1753
21654,1841
21658,1933
21662,1897
21666,1774
21670,1744
21674,1838
21678,1933
21682,1895
21686,1777
21690,1757
21694,1840
21698,1923
21702,1893
21706,1773
21710,1743
21714,1831
21718,1925
21722,1887
21726,1761
21730,1732
21734,1824
21738,1919
21742,1876
21746,1750
21750,1718
21754,1810
21758,1904
21762,1871
21766,1750
21770,1729
21774,1821
21778,1915
21782,1877
21786,1751
21790,1734
21794,1827
21798,1920
21802,1877
21806,1753
21810,1731
21814,1826
21818,1913
21822,1869
21826,1744
21830,1723
21834,1820
21838,1914
21842,1872
21846,1746
21850,1724
21854,1822
21858,1914
21862,1872
21866,1744
21870,1724
21874,1815
21878,1905
21882,1868
21886,1741
21890,1725
21894,1823
21898,1911
21902,1871
21906,1744
21910,1725
21914,1824
21918,1916
21922,1873
21926,1748
21930,1725
21934,1821
21938,1906
21942,1860
21946,1743
21950,1727
21954,1823
21958,1907
21962,1862
21966,1741
21970,1726
21974,1830
21978,1919
21982,1879
21986,1745
21990,1727
21994,1823
21998,1904
22002,1863
22006,1745
22010,1732
22014,1828
22018,1918
22022,1891
22026,1793
22030,1824
22034,1965
22038,2066
22042,2016
22046,1888
22050,1890
22054,2064
22058,2219
22062,2205
22066,2074
22070,2012
22074,2064
22078,2096
22082,2000
22086,1824
22090,1771
22094,1843
22098,1907
22102,1845
22106,1698
22110,1680
22114,1774
22118,1844
22122,1787
22126,1668
22130,1648
22134,1744
22138,1825
22142,1779
22146,1653
22150,1644
22154,1741
22158,1812
22162,1753
22166,1649
22170,1641
22174,1727
22178,1776
22182,1619
22186,1385
22190,1296
22194,1353
22198,1503
22202,1983
22206,2613
22210,3503
22214,4095
22218,4095
22222,4095
22226,3266
22230,2298
22234,1808
22238,1648
22242,1565
22246,1527
22250,1596
22254,1707
22258,1744
22262,1659
22266,1507
22270,1488
22274,1591
22278,1665
22282,1615
22286,1489
22290,1485
22294,1597
22298,1680
22302,1627
22306,1498
22310,1489
22314,1603
22318,1687
22322,1644
22326,1515
22330,1514
22334,1631
22338,1711
22342,1666
22346,1534
22350,1531
22354,1648
22358,1723
22362,1679
22366,1559
22370,1535
22374,1654
22378,1729
22382,1679
22386,1535
22390,1533
22394,1651
22398,1726
22402,1677
22406,1554
22410,1535
22414,1646
22418,1713
22422,1662
22426,1533
22430,1523
22434,1642
22438,1722
22442,1677
22446,1557
22450,1555
22454,1671
22458,1760
22462,1715
22466,1610
22470,1617
22474,1745
22478,1837
22482,1807
22486,1712
22490,1725
22494,1843
22498,1933
22502,1891
22506,1778
22510,1777
22514,1887
22518,1955
22522,1901
22526,1775
22530,1771
22534,1875
22538,1939
22542,1890
22546,1766
22550,1754
22554,1861
22558,1927
22562,1872
22566,1755
22570,1757
22574,1867
22578,1933
22582,1875
22586,1762
22590,1760
22594,1869
22598,1941
22602,1887
22606,1771
22610,1777
22614,1892
22618,1952
22622,1899
22626,1783
22630,1779
22634,1889
22638,1951
22642,1891
22646,1778
22650,1780
22654,1893
22658,1961
22662,1895
22666,1776
22670,1776
22674,1885
22678,1949
22682,1890
22686,1767
22690,1763
22694,1875
22698,1941
22702,1879
22706,1751
22710,1751
22714,1864
22718,1930
22722,1872
22726,1753
22730,1757
22734,1867
22738,1927
22742,1860
22746,1739
22750,1746
22754,1865
22758,1926
22762,1867
22766,1750
22770,1751
22774,1862
22778,1920
22782,1863
22786,1744
22790,1743
22794,1861
22798,1922
22802,1859
22806,1742
22810,1744
22814,1859
22818,1927
22822,1862
22826,1742
22830,1741
22834,1856
22838,1923
22842,1867
22846,1743
22850,1739
22854,1855
22858,1917
22862,1854
22866,1744
22870,1749
22874,1865
22878,1921
22882,1861
22886,1744
22890,1744
22894,1859
22898,1916
22902,1856
22906,1742
22910,1747
22914,1867
22918,1914
22922,1856
22926,1739
22930,1751
22934,1869
22938,1933
22942,1859
22946,1737
22950,1738
22954,1854
22958,1914
22962,1854
22966,1734
22970,1744
22974,1862
22978,1919
22982,1855
22986,1742
22990,1744
22994,1859
22998,1909
23002,1844
23006,1730
23010,1741
23014,1856
23018,1915
23022,1850
23026,1733
23030,1743
23034,1861
23038,1920
23042,1856
23046,1741
23050,1744
23054,1869
23058,1926
23062,1858
23066,1749
23070,1767
23074,1903
23078,1985
23082,1952
23086,1849
23090,1862
23094,1977
23098,2062
23102,2059
23106,2000
23110,2045
23114,2192
23118,2224
23122,2099
23126,1918
23130,1872
23134,1936
23138,1953
23142,1872
23146,1751
23150,1744
23154,1853
23158,1865
23162,1797
23166,1673
23170,1674
23174,1807
23178,1871
23182,1786
23186,1662
23190,1669
23194,1798
23198,1856
23202,1772
23206,1660
23210,1678
23214,1797
23218,1840
23222,1778
23226,1613
23230,1525
23234,1535
23238,1526
23242,1406
23246,1316
23250,1717
23254,2508
23258,3469
23262,4095
23266,4095
23270,3783
23274,2965
23278,2295
23282,1834
23286,1610
23290,1577
23294,1677
23298,1743
23302,1717
23306,1611
23310,1593
23314,1691
23318,1731
23322,1673
23326,1530
23330,1535
23334,1682
23338,1734
23342,1658
23346,1533
23350,1535
23354,1680
23358,1742
23362,1671
23366,1535
23370,1563
23374,1705
23378,1758
23382,1681
23386,1579
23390,1600
23394,1727
23398,1776
23402,1717
23406,1605
23410,1610
23414,1740
23418,1794
23422,1718
23426,1603
23430,1621
23434,1755
23438,1802
23442,1727
23446,1613
23450,1623
23454,1755
23458,1802
23462,1717
23466,1616
23470,1633
23474,1761
23478,1818
23482,1744
23486,1633
23490,1654
23494,1791
23498,1847
23502,1789
23506,1687
23510,1715
23514,1861
23518,1914
23522,1856
23526,1759
23530,1784
23534,1914
23538,1967
23542,1904
23546,1817
23550,1850
23554,1974
23558,2000
23562,1904
23566,1791
23570,1807
23574,1933
23578,1968
23582,1890
23586,1783
23590,1801
23594,1915
23598,1951
23602,1874
23606,1767
23610,1783
23614,1906
23618,1943
23622,1861
23626,1755
23630,1771
23634,1897
23638,1933
23642,1853
23646,1753
23650,1777
23654,1904
23658,1936
23662,1853
23666,1741
23670,1772
23674,1905
23678,1942
23682,1855
23686,1745
23690,1774
23694,1904
23698,1943
23702,1859
23706,1750
23710,1776
23714,1902
23718,1936
23722,1857
23726,1755
23730,1781
23734,1909
23738,1940
23742,1854
23746,1749
23750,1770
23754,1895
23758,1932
23762,1845
23766,1743
23770,1764
23774,1897
23778,1927
23782,1841
23786,1737
23790,1762
23794,1891
23798,1922
23802,1838
23806,1729
23810,1755
23814,1886
23818,1915
23822,1831
23826,1731
23830,1758
23834,1890
23838,1921
23842,1838
23846,1739
23850,1766
23854,1899
23858,1931
23862,1840
23866,1743
23870,1771
23874,1904
23878,1931
23882,1840
23886,1742
23890,1762
23894,1901
23898,1932
23902,1840
23906,1742
23910,1771
23914,1901
23918,1930
23922,1842
23926,1746
23930,1773
23934,1899
23938,1923
23942,1838
23946,1744
23950,1775
23954,1905
23958,1929
23962,1840
23966,1744
23970,1776
23974,1918
23978,1952
23982,1903
23986,1843
23990,1903
23994,2039
23998,2072
24002,1987
24006,1949
24010,2044
24014,2210
24018,2256
24022,2155
24026,2011
24030,1971
24034,2045
24038,2014
24042,1872
24046,1751
24050,1763
24054,1877
24058,1887
24062,1776
24066,1670
24070,1689
24074,1815
24078,1837
24082,1744
24086,1648
24090,1678
24094,1804
24098,1821
24102,1729
24106,1639
24110,1669
24114,1799
24118,1817
24122,1724
24126,1634
24130,1664
24134,1766
24138,1696
24142,1488
24146,1315
24150,1308
24154,1415
24158,1734
24162,2309
24166,3013
24170,4095
24174,4095
24178,4095
24182,3612
24186,2495
24190,1807
24194,1632
24198,1579
24202,1532
24206,1553
24210,1631
24214,1739
24218,1719
24222,1595
24226,1479
24230,1515
24234,1658
24238,1676
24242,1577
24246,1478
24250,1501
24254,1681
24258,1669
24262,1572
24266,1488
24270,1523
24274,1669
24278,1689
24282,1595
24286,1497
24290,1535
24294,1683
24298,1712
24302,1616
24306,1523
24310,1573
24314,1712
24318,1728
24322,1634
24326,1535
24330,1587
24334,1721
24338,1735
24342,1639
24346,1558
24350,1597
24354,1727
24358,1735
24362,1630
24366,1534
24370,1581
24374,1717
24378,1734
24382,1629
24386,1535
24390,1584
24394,1723
24398,1744
24402,1648
24406,1575
24410,1621
24414,1761
24418,1779
24422,1695
24426,1629
24430,1686
24434,1840
24438,1875
24442,1790
24446,1723
24450,1781
24454,1924
24458,1936
24462,1839
24466,1755
24470,1804
24474,1936
24478,1936
24482,1828
24486,1738
24490,1774
24494,1899
24498,1904
24502,1807
24506,1725
24510,1767
24514,1893
24518,1899
24522,1794
24526,1712
24530,1755
24534,1887
24538,1895
24542,1794
24546,1714
24550,1756
24554,1890
24558,1901
24562,1803
24566,1727
24570,1776
24574,1905
24578,1910
24582,1809
24586,1730
24590,1776
24594,1904
24598,1914
24602,1819
24606,1747
24610,1794
24614,1923
24618,1933
24622,1834
24626,1753
24630,1793
24634,1923
24638,1930
24642,1825
24646,1739
24650,1786
24654,1911
24658,1919
24662,1819
24666,1743
24670,1786
24674,1917
24678,1921
24682,1817
24686,1742
24690,1783
24694,1918
24698,1922
24702,1814
24706,1735
24710,1776
24714,1917
24718,1919
24722,1808
24726,1728
24730,1776
24734,1906
24738,1914
24742,1808
24746,1732
24750,1781
24754,1914
24758,1914
24762,1809
24766,1739
24770,1783
24774,1909
24778,1915
24782,1808
24786,1733
24790,1782
24794,1921
24798,1933
24802,1813
24806,1732
24810,1777
24814,1904
24818,1904
24822,1807
24826,1732
24830,1786
24834,1914
24838,1915
24842,1809
24846,1742
24850,1791
24854,1919
24858,1921
24862,1813
24866,1749
24870,1801
24874,1923
24878,1924
24882,1811
24886,1739
24890,1794
24894,1933
24898,1936
24902,1825
24906,1753
24910,1799
24914,1927
24918,1925
24922,1814
24926,1750
24930,1805
24934,1926
24938,1926
24942,1820
24946,1754
24950,1805
24954,1925
24958,1930
24962,1827
24966,1760
24970,1813
24974,1942
24978,1939
24982,1837
24986,1766
24990,1814
24994,1936
24998,1927
25002,1821
25006,1759
25010,1818
25014,1942
25018,1937
25022,1829
25026,1763
25030,1818
25034,1936
25038,1935
25042,1822
25046,1747
25050,1801
25054,1921
25058,1915
25062,1809
25066,1759
25070,1830
25074,1975
25078,2006
25082,1936
25086,1893
25090,1936
25094,2046
25098,2068
25102,2026
25106,2018
25110,2102
25114,2239
25118,2209
25122,2042
25126,1914
25130,1923
25134,2000
25138,1947
25142,1824
25146,1746
25150,1779
25154,1882
25158,1862
25162,1742
25166,1675
25170,1734
25174,1863
25178,1854
25182,1729
25186,1651
25190,1710
25194,1835
25198,1821
25202,1711
25206,1652
25210,1718
25214,1840
25218,1831
25222,1711
25226,1618
25230,1601
25234,1616
25238,1517
25242,1350
25246,1260
25250,1644
25254,2448
25258,3248
25262,4095
25266,4095
25270,4095
25274,3697
25278,2651
25282,1911
25286,1574
25290,1531
25294,1683
25298,1747
25302,1667
25306,1584
25310,1597
25314,1698
25318,1667
25322,1535
25326,1483
25330,1535
25334,1667
25338,1658
25342,1535
25346,1489
25350,1555
25354,1680
25358,1665
25362,1556
25366,1491
25370,1573
25374,1697
25378,1687
25382,1573
25386,1517
25390,1597
25394,1724
25398,1705
25402,1591
25406,1534
25410,1614
25414,1733
25418,1712
25422,1605
25426,1555
25430,1633
25434,1746
25438,1735
25442,1623
25446,1552
25450,1605
25454,1744
25458,1743
25462,1634
25466,1573
25470,1637
25474,1763
25478,1747
25482,1636
25486,1595
25490,1667
25494,1799
25498,1791
25502,1680
25506,1647
25510,1726
25514,1856
25518,1847
25522,1744
25526,1712
25530,1799
25534,1934
25538,1923
25542,1825
25546,1792
25550,1870
25554,1987
25558,1973
25562,1858
25566,1808
25570,1872
25574,1987
25578,1952
25582,1837
25586,1779
25590,1847
25594,1966
25598,1947
25602,1827
25606,1769
25610,1829
25614,1936
25618,1925
25622,1808
25626,1757
25630,1827
25634,1952
25638,1930
25642,1802
25646,1757
25650,1819
25654,1936
25658,1927
25662,1808
25666,1760
25670,1834
25674,1954
25678,1927
25682,1808
25686,1754
25690,1825
25694,1951
25698,1935
25702,1813
25706,1769
25710,1838
25714,1943
25718,1911
25722,1795
25726,1751
25730,1827
25734,1939
25738,1923
25742,1805
25746,1744
25750,1817
25754,1933
25758,1917
25762,1803
25766,1758
25770,1830
25774,1938
25778,1909
25782,1790
25786,1742
25790,1821
25794,1935
25798,1909
25802,1792
25806,1744
25810,1811
25814,1921
25818,1901
25822,1783
25826,1734
25830,1801
25834,1913
25838,1898
25842,1777
25846,1739
25850,1812
25854,1921
25858,1895
25862,1776
25866,1731
25870,1808
25874,1920
25878,1894
25882,1769
25886,1723
25890,1802
25894,1913
25898,1897
25902,1769
25906,1713
25910,1801
25914,1922
25918,1910
25922,1781
25926,1738
25930,1818
25934,1937
25938,1908
25942,1778
25946,1729
25950,1803
25954,1919
25958,1899
25962,1776
25966,1729
25970,1803
25974,1911
25978,1888
25982,1772
25986,1731
25990,1810
25994,1921
25998,1890
26002,1759
26006,1715
26010,1797
26014,1911
26018,1890
26022,1767
26026,1727
26030,1805
26034,1907
26038,1882
26042,1766
26046,1724
26050,1806
26054,1906
26058,1875
26062,1759
26066,1726
26070,1808
26074,1916
26078,1891
26082,1766
26086,1738
26090,1818
26094,1923
26098,1894
26102,1777
26106,1744
26110,1828
26114,1936
26118,1909
26122,1793
26126,1785
26130,1917
26134,2064
26138,2062
26142,1925
26146,1872
26150,1968
26154,2143
26158,2176
26162,2089
26166,2062
26170,2124
26174,2181
26178,2068
26182,1886
26186,1806
26190,1854
26194,1941
26198,1892
26202,1743
26206,1682
26210,1762
26214,1866
26218,1821
26222,1691
26226,1655
26230,1744
26234,1849
26238,1808
26242,1667
26246,1649
26250,1743
26254,1850
26258,1814
26262,1683
26266,1648
26270,1727
26274,1808
26278,1706
26282,1473
26286,1341
26290,1371
26294,1447
26298,1605
26302,2102
26306,2830
26310,4032
26314,4095
26318,4095
26322,4095
26326,3024
26330,2199
26334,1793
26338,1583
26342,1463
26346,1554
26350,1702
26354,1782
26358,1706
26362,1535
26366,1490
26370,1597
26374,1680
26378,1648
26382,1520
26386,1488
26390,1574
26394,1680
26398,1654
26402,1520
26406,1482
26410,1574
26414,1682
26418,1659
26422,1535
26426,1511
26430,1606
26434,1712
26438,1682
26442,1553
26446,1522
26450,1622
26454,1733
26458,1706
26462,1584
26466,1555
26470,1643
26474,1745
26478,1725
26482,1600
26486,1552
26490,1645
26494,1751
26498,1716
26502,1593
26506,1553
26510,1643
26514,1737
26518,1697
26522,1584
26526,1535
26530,1638
26534,1727
26538,1700
26542,1593
26546,1575
26550,1677
26554,1787
26558,1765
26562,1663
26566,1645
26570,1740
26574,1861
26578,1847
26582,1755
26586,1748
26590,1842
26594,1952
26598,1921
26602,1818
26606,1810
26610,1874
26614,1983
26618,1947
26622,1776
26626,1777
26630,1903
26634,1994
26638,1921
26642,1761
26646,1742
26650,1826
26654,1925
26658,1901
26662,1776
26666,1742
26670,1818
26674,1895
26678,1872
26682,1773
26686,1751
26690,1855
26694,1968
26698,1948
26702,1807
26706,1772
26710,1845
26714,1932
26718,1904
26722,1794
26726,1789
26730,1875
26734,1967
26738,1920
26742,1794
26746,1765
26750,1854
26754,1946
26758,1910
26762,1791
26766,1771
26770,1860
26774,1953
26778,1918
26782,1794
26786,1764
26790,1856
26794,1941
26798,1914
26802,1786
26806,1769
26810,1865
26814,1945
26818,1904
26822,1776
26826,1757
26830,1855
26834,1936
26838,1904
26842,1770
26846,1744
26850,1846
26854,1937
26858,1901
26862,1763
26866,1733
26870,1841
26874,1935
26878,1893
26882,1799
26886,1756
26890,1827
26894,1915
26898,1875
26902,1751
26906,1729
26910,1823
26914,1918
26918,1883
26922,1757
26926,1740
26930,1838
26934,1921
26938,1886
26942,1756
26946,1738
26950,1840
26954,1934
26958,1886
26962,1763
26966,1732
26970,1831
26974,1922
26978,1873
26982,1751
26986,1737
26990,1829
26994,1915
26998,1870
27002,1745
27006,1743
27010,1840
27014,1930
27018,1887
27022,1758
27026,1742
27030,1841
27034,1918
27038,1879
27042,1765
27046,1764
27050,1852
27054,1921
27058,1873
27062,1747
27066,1741
27070,1857
27074,1938
27078,1891
27082,1759
27086,1755
27090,1853
27094,1937
27098,1886
27102,1777
27106,1761
27110,1834
27114,1936
27118,1916
27122,1786
27126,1777
27130,1945
27134,2073
27138,2007
27142,1859
27146,1847
27150,1947
27154,2075
27158,2090
27162,2025
27166,2047
27170,2132
27174,2169
27178,2055
27182,1881
27186,1829
27190,1920
27194,1983
27198,1923
27202,1783
27206,1757
27210,1838
27214,1904
27218,1861
27222,1729
27226,1711
27230,1811
27234,1889
27238,1856
27242,1733
27246,1721
27250,1822
27254,1900
27258,1853
27262,1729
27266,1719
27270,1814
27274,1826
27278,1648
27282,1382
27286,1233
27290,1249
27294,1335
27298,1809
27302,2498
27306,3522
27310,4095
27314,4095
27318,4095
27322,3553
27326,2640
27330,2183
27334,1951
27338,1711
27342,1554
27346,1601
27350,1709
27354,1749
27358,1675
27362,1523
27366,1514
27370,1609
27374,1683
27378,1648
27382,1506
27386,1493
27390,1610
27394,1678
27398,1626
27402,1510
27406,1490
27410,1593
27414,1683
27418,1646
27422,1526
27426,1526
27430,1639
27434,1709
27438,1654
27442,1520
27446,1523
27450,1633
27454,1723
27458,1690
27462,1559
27466,1535
27470,1634
27474,1685
27478,1630
27482,1521
27486,1519
27490,1651
27494,1715
27498,1649
27502,1519
27506,1520
27510,1642
27514,1703
27518,1632
27522,1503
27526,1515
27530,1616
27534,1674
27538,1602
27542,1526
27546,1616
27550,1715
27554,1728
27558,1641
27562,1533
27566,1584
27570,1777
27574,1875
27578,1843
27582,1741
27586,1756
27590,1899
27594,1974
27598,1934
27602,1811
27606,1825
27610,1949
27614,2021
27618,1951
27622,1827
27626,1850
27630,1942
27634,2005
27638,1982
27642,1851
27646,1839
27650,1918
27654,1959
27658,1913
27662,1815
27666,1853
27670,1953
27674,2021
27678,1961
27682,1842
27686,1837
27690,1939
27694,2007
27698,1952
27702,1822
27706,1821
27710,1931
27714,2000
27718,1940
27722,1821
27726,1815
27730,1927
27734,2000
27738,1936
27742,1815
27746,1807
27750,1918
27754,1990
27758,1943
27762,1813
27766,1790
27770,1904
27774,1968
27778,1911
27782,1800
27786,1795
27790,1918
27794,1966
27798,1915
27802,1808
27806,1807
27810,1921
27814,1981
27818,1917
27822,1787
27826,1776
27830,1902
27834,1965
27838,1904
27842,1779
27846,1789
27850,1903
27854,1965
27858,1907
27862,1790
27866,1795
27870,1934
27874,2012
27878,1899
27882,1733
27886,1723
27890,1856
27894,1955
27898,1811
27902,1728
27906,1727
27910,1847
27914,1926
27918,1887
27922,1786
27926,1790
27930,1838
27934,1962
27938,2001
27942,1872
27946,1860
27950,1947
27954,1982
27958,1918
27962,1831
27966,1859
27970,1980
27974,2039
27978,1965
27982,1837
27986,1838
27990,1965
27994,2033
27998,1974
28002,1851
28006,1858
28010,1982
28014,2075
28018,2027
28022,1907
28026,1898
28030,2021
28034,2095
28038,2073
28042,2013
28046,2068
28050,2203
28054,2234
28058,2124
28062,1939
28066,1937
28070,2032
28074,2026
28078,1911
28082,1792
28086,1790
28090,1885
28094,1913
28098,1834
28102,1690
28106,1702
28110,1832
28114,1875
28118,1803
28122,1678
28126,1686
28130,1794
28134,1855
28138,1789
28142,1675
28146,1679
28150,1809
28154,1856
28158,1786
28162,1583
28166,1426
28170,1366
28174,1278
28178,1066
28182,987
28186,1441
28190,2430
28194,3601
28198,4095
28202,4095
28206,4095
28210,4095
28214,3182
28218,2430
28222,1944
28226,1728
28230,1727
28234,1713
28238,1641
28242,1524
28246,1529
28250,1675
28254,1684
28258,1558
28262,1451
28266,1527
28270,1683
28274,1727
28278,1625
28282,1495
28286,1519
28290,1643
28294,1685
28298,1619
28302,1494
28306,1506
28310,1630
28314,1683
28318,1616
28322,1489
28326,1501
28330,1629
28334,1683
28338,1606
28342,1483
28346,1478
28350,1616
28354,1677
28358,1603
28362,1486
28366,1491
28370,1617
28374,1667
28378,1587
28382,1457
28386,1465
28390,1603
28394,1653
28398,1580
28402,1455
28406,1456
28410,1586
28414,1643
28418,1569
28422,1438
28426,1453
28430,1616
28434,1687
28438,1623
28442,1521
28446,1535
28450,1659
28454,1751
28458,1685
28462,1584
28466,1635
28470,1791
28474,1851
28478,1778
28482,1666
28486,1707
28490,1851
28494,1911
28498,1840
28502,1727
28506,1757
28510,1911
28514,1937
28518,1840
28522,1692
28526,1651
28530,1817
28534,1893
28538,1835
28542,1706
28546,1737
28550,1903
28554,1994
28558,1851
28562,1729
28566,1758
28570,1892
28574,1953
28578,1918
28582,1778
28586,1791
28590,1916
28594,1979
28598,1904
28602,1787
28606,1799
28610,1936
28614,1998
28618,1936
28622,1808
28626,1808
28630,1936
28634,1985
28638,1907
28642,1787
28646,1803
28650,1931
28654,1986
28658,1909
28662,1787
28666,1810
28670,1945
28674,1989
28678,1906
28682,1794
28686,1803
28690,1920
28694,1968
28698,1891
28702,1786
28706,1806
28710,1942
28714,1980
28718,1891
28722,1773
28726,1783
28730,1914
28734,1956
28738,1878
28742,1761
28746,1776
28750,1904
28754,1943
28758,1867
28762,1744
28766,1761
28770,1894
28774,1943
28778,1858
28782,1737
28786,1744
28790,1867
28794,1912
28798,1829
28802,1715
28806,1741
28810,1883
28814,1945
28818,1903
28822,1805
28826,1829
28830,1965
28834,2021
28838,1996
28842,1965
28846,2045
28850,2206
28854,2250
28858,2137
28862,1977
28866,1958
28870,2022
28874,1998
28878,1884
28882,1742
28886,1731
28890,1833
28894,1852
28898,1771
28902,1671
28906,1683
28910,1808
28914,1838
28918,1740
28922,1630
28926,1654
28930,1779
28934,1815
28938,1744
28942,1648
28946,1666
28950,1783
28954,1813
28958,1712
28962,1535
28966,1441
28970,1457
28974,1385
28978,1203
28982,1085
28986,1429
28990,2256
28994,3201
28998,4095
29002,4095
29006,3760
29010,3152
29014,2643
29018,2177
29022,1834
29026,1667
29030,1635
29034,1627
29038,1583
29042,1502
29046,1525
29050,1667
29054,1680
29058,1580
29062,1456
29066,1483
29070,1627
29074,1667
29078,1578
29082,1483
29086,1517
29090,1639
29094,1671
29098,1581
29102,1476
29106,1531
29110,1665
29114,1693
29118,1610
29122,1494
29126,1534
29130,1672
29134,1721
29138,1654
29142,1535
29146,1535
29150,1692
29154,1743
29158,1662
29162,1583
29166,1591
29170,1705
29174,1718
29178,1643
29182,1559
29186,1598
29190,1739
29194,1753
29198,1653
29202,1535
29206,1591
29210,1727
29214,1753
29218,1663
29222,1565
29226,1599
29230,1746
29234,1798
29238,1701
29242,1616
29246,1664
29250,1824
29254,1856
29258,1786
29262,1712
29266,1747
29270,1885
29274,1921
29278,1847
29282,1762
29286,1801
29290,1930
29294,1950
29298,1885
29302,1786
29306,1806
29310,1931
29314,1939
29318,1840
29322,1763
29326,1797
29330,1919
29334,1946
29338,1875
29342,1783
29346,1811
29350,1922
29354,1946
29358,1863
29362,1783
29366,1812
29370,1919
29374,1948
29378,1849
29382,1751
29386,1782
29390,1929
29394,1958
29398,1861
29402,1766
29406,1783
29410,1904
29414,1936
29418,1858
29422,1751
29426,1775
29430,1933
29434,1936
29438,1827
29442,1732
29446,1778
29450,1904
29454,1923
29458,1838
29462,1741
29466,1773
29470,1907
29474,1937
29478,1849
29482,1750
29486,1766
29490,1902
29494,1932
29498,1850
29502,1760
29506,1780
29510,1907
29514,1938
29518,1838
29522,1748
29526,1776
29530,1905
29534,1924
29538,1825
29542,1733
29546,1773
29550,1904
29554,1952
29558,1901
29562,1857
29566,1913
29570,2037
29574,2065
29578,1991
29582,1963
29586,2032
29590,2208
29594,2275
29598,2192
29602,2069
29606,2053
29610,2122
29614,2071
29618,1900
29622,1755
29626,1763
29630,1877
29634,1877
29638,1776
29642,1679
29646,1700
29650,1824
29654,1835
29658,1726
29662,1622
29666,1651
29670,1805
29674,1827
29678,1732
29682,1648
29686,1662
29690,1793
29694,1789
29698,1771
29702,1636
29706,1517
29710,1497
29714,1398
29718,1171
29722,997
29726,1253
29730,2093
29734,2969
29738,4074
29742,4095
29746,4095
29750,4095
29754,3179
29758,2337
29762,1842
29766,1661
29770,1697
29774,1714
29778,1648
29782,1561
29786,1561
29790,1665
29794,1664
29798,1559
29802,1465
29806,1494
29810,1623
29814,1626
29818,1520
29822,1438
29826,1484
29830,1635
29834,1653
29838,1535
29842,1465
29846,1505
29850,1642
29854,1659
29858,1570
29862,1485
29866,1519
29870,1649
29874,1661
29878,1560
29882,1475
29886,1529
29890,1665
29894,1678
29898,1578
29902,1487
29906,1520
29910,1662
29914,1674
29918,1563
29922,1472
29926,1520
29930,1662
29934,1670
29938,1565
29942,1485
29946,1514
29950,1646
29954,1657
29958,1535
29962,1469
29966,1511
29970,1664
29974,1696
29978,1618
29982,1535
29986,1583
29990,1732
29994,1775
29998,1695
30002,1617
30006,1679
30010,1829
