ms,adc
14,1877
18,1994
22,1987
26,1884
30,1808
34,1863
38,1978
42,1982
46,1884
50,1810
54,1870
58,1985
62,1970
66,1871
70,1802
74,1855
78,1973
82,1965
86,1857
90,1795
94,1851
98,1972
102,1968
106,1862
110,1792
114,1837
118,1963
122,1975
126,1874
130,1797
134,1843
138,1983
142,1981
146,1870
150,1803
154,1855
158,1971
162,1953
166,1838
170,1776
174,1841
178,1968
182,1954
186,1843
190,1793
194,1879
198,2025
202,2023
206,1930
210,1872
214,1941
218,2102
222,2141
226,2085
230,2064
234,2124
238,2207
242,2131
246,1961
250,1846
254,1847
258,1941
262,1907
266,1777
270,1712
274,1767
278,1871
282,1842
286,1730
290,1675
294,1728
298,1834
302,1805
306,1685
310,1645
314,1718
318,1813
322,1803
326,1689
330,1646
334,1709
338,1814
342,1771
346,1615
350,1466
354,1440
358,1489
362,1424
366,1333
370,1616
374,2310
378,3233
382,4095
386,4095
390,3524
394,2754
398,2229
402,1810
406,1577
410,1490
414,1535
418,1649
422,1646
426,1535
430,1506
434,1566
438,1654
442,1599
446,1478
450,1454
454,1535
458,1648
462,1603
466,1472
470,1449
474,1535
478,1648
482,1611
486,1481
490,1456
494,1535
498,1648
502,1602
506,1485
510,1472
514,1563
518,1670
522,1618
526,1495
530,1488
534,1594
538,1686
542,1642
546,1495
550,1489
554,1597
558,1686
562,1639
566,1521
570,1509
574,1607
578,1696
582,1637
586,1507
590,1501
594,1606
598,1697
602,1645
606,1525
610,1527
614,1644
618,1740
622,1692
626,1582
630,1585
634,1697
638,1793
642,1749
646,1648
650,1667
654,1782
658,1863
662,1808
666,1695
670,1703
674,1805
678,1872
682,1808
686,1683
690,1686
694,1780
698,1839
702,1766
706,1645
710,1648
714,1761
718,1825
722,1759
726,1642
730,1643
734,1749
738,1814
742,1745
746,1630
750,1645
754,1756
758,1818
762,1754
766,1647
770,1659
774,1771
778,1830
782,1761
786,1648
790,1667
794,1782
798,1835
802,1757
806,1637
810,1654
814,1776
818,1827
822,1749
826,1635
830,1649
834,1776
838,1824
842,1749
846,1639
850,1663
854,1778
858,1825
862,1744
866,1631
870,1662
874,1779
878,1830
882,1744
886,1633
890,1663
894,1789
898,1823
902,1744
906,1643
910,1672
914,1798
918,1837
922,1751
926,1653
930,1685
934,1808
938,1843
942,1759
946,1649
950,1678
954,1806
958,1838
962,1754
966,1654
970,1687
974,1813
978,1840
982,1751
986,1660
990,1702
994,1827
998,1852
1002,1757
1006,1659
1010,1697
1014,1826
1018,1847
1022,1758
1026,1666
1030,1707
1034,1833
1038,1858
1042,1770
1046,1678
1050,1710
1054,1833
1058,1847
1062,1759
1066,1671
1070,1712
1074,1841
1078,1858
1082,1763
1086,1679
1090,1722
1094,1852
1098,1865
1102,1765
1106,1673
1110,1719
1114,1856
1118,1867
1122,1761
1126,1680
1130,1729
1134,1866
1138,1872
1142,1776
1146,1701
1150,1744
1154,1873
1158,1876
1162,1776
1166,1697
1170,1744
1174,1872
1178,1877
1182,1779
1186,1710
1190,1777
1194,1953
1198,1999
1202,1914
1206,1840
1210,1879
1214,2038
1218,2111
1222,2064
1226,2015
1230,2086
1234,2190
1238,2131
1242,1948
1246,1823
1250,1826
1254,1919
1258,1896
1262,1767
1266,1687
1270,1731
1274,1843
1278,1823
1282,1707
1286,1635
1290,1685
1294,1809
1298,1794
1302,1685
1306,1630
1310,1684
1314,1808
1318,1795
1322,1686
1326,1633
1330,1687
1334,1803
1338,1766
1342,1601
1346,1431
1350,1394
1354,1466
1358,1419
1362,1450
1366,1966
1370,2754
1374,3904
1378,4095
1382,4095
1386,3829
1390,2832
1394,2147
1398,1714
1402,1482
1406,1428
1410,1561
1414,1733
1418,1712
1422,1569
1426,1489
1430,1533
1434,1632
1438,1601
1442,1491
1446,1457
1450,1527
1454,1633
1458,1603
1462,1496
1466,1467
1470,1535
1474,1643
1478,1604
1482,1506
1486,1490
1490,1575
1494,1671
1498,1631
1502,1520
1506,1494
1510,1595
1514,1707
1518,1672
1522,1563
1526,1535
1530,1618
1534,1727
1538,1711
1542,1579
1546,1535
1550,1627
1554,1718
1558,1691
1562,1584
1566,1560
1570,1638
1574,1730
1578,1687
1582,1578
1586,1552
1590,1638
1594,1725
1598,1691
1602,1585
1606,1572
1610,1655
1614,1757
1618,1731
1622,1634
1626,1629
1630,1726
1634,1809
1638,1777
1642,1703
1646,1722
1650,1823
1654,1910
1658,1872
1662,1776
1666,1776
1670,1865
1674,1936
1678,1882
1682,1770
1686,1759
1690,1849
1694,1907
1698,1851
1702,1743
1706,1731
1710,1815
1714,1878
1718,1834
1722,1733
1726,1737
1730,1818
1734,1874
1738,1822
1742,1726
1746,1727
1750,1813
1754,1872
1758,1808
1762,1711
1766,1730
1770,1827
1774,1877
1778,1822
1782,1718
1786,1730
1790,1817
1794,1865
1798,1808
1802,1721
1806,1735
1810,1822
1814,1863
1818,1808
1822,1719
1826,1728
1830,1815
1834,1867
1838,1808
1842,1718
1846,1729
1850,1818
1854,1858
1858,1806
1862,1728
1866,1744
1870,1828
1874,1861
1878,1807
1882,1727
1886,1747
1890,1837
1894,1867
1898,1805
1902,1726
1906,1744
1910,1833
1914,1870
1918,1819
1922,1730
1926,1744
1930,1833
1934,1865
1938,1803
1942,1717
1946,1734
1950,1837
1954,1869
1958,1804
1962,1721
1966,1745
1970,1842
1974,1870
1978,1807
1982,1724
1986,1747
1990,1843
1994,1868
1998,1811
2002,1729
2006,1754
2010,1849
2014,1867
2018,1802
2022,1732
2026,1758
2030,1851
2034,1862
2038,1796
2042,1728
2046,1761
2050,1855
2054,1872
2058,1802
2062,1727
2066,1757
2070,1849
2074,1856
2078,1790
2082,1727
2086,1766
2090,1861
2094,1866
2098,1790
2102,1725
2106,1758
2110,1858
2114,1872
2118,1802
2122,1732
2126,1766
2130,1867
2134,1874
2138,1803
2142,1744
2146,1775
2150,1872
2154,1878
2158,1807
2162,1744
2166,1776
2170,1871
2174,1872
2178,1802
2182,1744
2186,1782
2190,1875
2194,1874
2198,1793
2202,1735
2206,1775
2210,1871
2214,1881
2218,1818
2222,1799
2226,1878
2230,1997
2234,1993
2238,1904
2242,1863
2246,1966
2250,2131
2254,2160
2258,2106
2262,2037
2266,2033
2270,2067
2274,1999
2278,1872
2282,1787
2286,1804
2290,1885
2294,1857
2298,1763
2302,1701
2306,1734
2310,1815
2314,1795
2318,1712
2322,1664
2326,1709
2330,1791
2334,1779
2338,1692
2342,1653
2346,1702
2350,1793
2354,1775
2358,1685
2362,1655
2366,1694
2370,1740
2374,1621
2378,1426
2382,1315
2386,1318
2390,1414
2394,1770
2398,2340
2402,3088
2406,4095
2410,4095
2414,4095
2418,3159
2422,2326
2426,1875
2430,1774
2434,1665
2438,1535
2442,1535
2446,1632
2450,1705
2454,1659
2458,1568
2462,1524
2466,1568
2470,1631
2474,1609
2478,1523
2482,1504
2486,1569
2490,1642
2494,1616
2498,1535
2502,1531
2506,1599
2510,1659
2514,1632
2518,1566
2522,1554
2526,1616
2530,1667
2534,1629
2538,1535
2542,1531
2546,1605
2550,1680
2554,1648
2558,1582
2562,1568
2566,1652
2570,1714
2574,1680
2578,1571
2582,1555
2586,1619
2590,1680
2594,1638
2598,1559
2602,1565
2606,1648
2610,1699
2614,1654
2618,1570
2622,1568
2626,1637
2630,1712
2634,1691
2638,1645
2642,1646
2646,1728
2650,1793
2654,1749
2658,1665
2662,1694
2666,1797
2670,1872
2674,1859
2678,1802
2682,1819
2686,1895
2690,1957
2694,1920
2698,1839
2702,1831
2706,1907
2710,1953
2714,1904
2718,1825
2722,1825
2726,1885
2730,1937
2734,1894
2738,1786
2742,1778
2746,1863
2750,1920
2754,1872
2758,1779
2762,1781
2766,1857
2770,1901
2774,1856
2778,1770
2782,1775
2786,1856
2790,1904
2794,1863
2798,1777
2802,1790
2806,1878
2810,1923
2814,1873
2818,1782
2822,1789
2826,1873
2830,1929
2834,1885
2838,1794
2842,1809
2846,1872
2850,1906
2854,1882
2858,1776
2862,1760
2866,1856
2870,1914
2874,1850
2878,1755
2882,1776
2886,1871
2890,1904
2894,1842
2898,1753
2902,1776
2906,1871
2910,1905
2914,1853
2918,1774
2922,1799
2926,1891
2930,1917
2934,1844
2938,1764
2942,1776
2946,1866
2950,1897
2954,1840
2958,1771
2962,1775
2966,1869
2970,1888
2974,1831
2978,1751
2982,1770
2986,1870
2990,1882
2994,1824
2998,1744
3002,1770
3006,1856
3010,1870
3014,1813
3018,1763
3022,1781
3026,1867
3030,1875
3034,1818
3038,1747
3042,1778
3046,1866
3050,1878
3054,1819
3058,1750
3062,1776
3066,1855
3070,1866
3074,1799
3078,1741
3082,1772
3086,1867
3090,1871
3094,1798
3098,1742
3102,1775
3106,1872
3110,1889
3114,1853
3118,1835
3122,1874
3126,1968
3130,1962
3134,1895
3138,1890
3142,1997
3146,2163
3150,2207
3154,2123
3158,2041
3162,2046
3166,2089
3170,2009
3174,1863
3178,1765
3182,1771
3186,1840
3190,1831
3194,1747
3198,1681
3202,1709
3206,1791
3210,1783
3214,1709
3218,1663
3222,1692
3226,1789
3230,1788
3234,1711
3238,1648
3242,1691
3246,1794
3250,1781
3254,1692
3258,1639
3262,1661
3266,1671
3270,1569
3274,1404
3278,1308
3282,1343
3286,1586
3290,2075
3294,2699
3298,3573
3302,4095
3306,4095
3310,3328
3314,2468
3318,1887
3322,1710
3326,1733
3330,1667
3334,1553
3338,1527
3342,1606
3346,1709
3350,1693
3354,1588
3358,1525
3362,1575
3366,1651
3370,1638
3374,1535
3378,1520
3382,1582
3386,1670
3390,1659
3394,1583
3398,1554
3402,1603
3406,1681
3410,1661
3414,1569
3418,1535
3422,1627
3426,1708
3430,1680
3434,1591
3438,1573
3442,1638
3446,1716
3450,1687
3454,1603
3458,1584
3462,1653
3466,1730
3470,1709
3474,1632
3478,1602
3482,1649
3486,1723
3490,1696
3494,1616
3498,1603
3502,1660
3506,1730
3510,1696
3514,1612
3518,1600
3522,1679
3526,1755
3530,1722
3534,1636
3538,1633
3542,1716
3546,1797
3550,1777
3554,1699
3558,1698
3562,1783
3566,1861
3570,1841
3574,1774
3578,1771
3582,1845
3586,1915
3590,1885
3594,1787
3598,1770
3602,1834
3606,1890
3610,1854
3614,1754
3618,1738
3622,1808
3626,1868
3630,1824
3634,1721
3638,1713
3642,1791
3646,1840
3650,1805
3654,1718
3658,1713
3662,1789
3666,1842
3670,1801
3674,1717
3678,1729
3682,1803
3686,1834
3690,1788
3694,1712
3698,1711
3702,1798
3706,1842
3710,1797
3714,1712
3718,1711
3722,1781
3726,1834
3730,1788
3734,1702
3738,1710
3742,1785
3746,1829
3750,1781
3754,1712
3758,1722
3762,1796
3766,1825
3770,1775
3774,1694
3778,1700
3782,1791
3786,1827
3790,1766
3794,1680
3798,1704
3802,1797
3806,1830
3810,1769
3814,1694
3818,1701
3822,1793
3826,1824
3830,1774
3834,1696
3838,1701
3842,1781
3846,1818
3850,1770
3854,1705
3858,1717
3862,1793
3866,1811
3870,1759
3874,1683
3878,1700
3882,1792
3886,1829
3890,1766
3894,1686
3898,1709
3902,1792
3906,1821
3910,1762
3914,1687
3918,1713
3922,1814
3926,1837
3930,1771
3934,1696
3938,1717
3942,1813
3946,1830
3950,1767
3954,1696
3958,1725
3962,1817
3966,1823
3970,1757
3974,1690
3978,1725
3982,1829
3986,1842
3990,1780
3994,1711
3998,1734
4002,1813
4006,1838
4010,1776
4014,1708
4018,1729
4022,1834
4026,1856
4030,1790
4034,1724
4038,1743
4042,1845
4046,1858
4050,1795
4054,1722
4058,1744
4062,1851
4066,1868
4070,1779
4074,1727
4078,1787
4082,1931
4086,1986
4090,1926
4094,1869
4098,1889
4102,1998
4106,2071
4110,2064
4114,2023
4118,2055
4122,2128
4126,2095
4130,1956
4134,1829
4138,1811
4142,1879
4146,1863
4150,1766
4154,1684
4158,1707
4162,1806
4166,1788
4170,1698
4174,1628
4178,1671
4182,1765
4186,1757
4190,1666
4194,1619
4198,1664
4202,1770
4206,1761
4210,1675
4214,1627
4218,1664
4222,1761
4226,1735
4230,1578
4234,1426
4238,1383
4242,1415
4246,1360
4250,1498
4254,2085
4258,2871
4262,4086
4266,4095
4270,4095
4274,3542
4278,2646
4282,2035
4286,1712
4290,1515
4294,1455
4298,1568
4302,1714
4306,1711
4310,1584
4314,1501
4318,1527
4322,1623
4326,1615
4330,1522
4334,1477
4338,1522
4342,1629
4346,1616
4350,1509
4354,1482
4358,1562
4362,1648
4366,1630
4370,1530
4374,1503
4378,1583
4382,1679
4386,1649
4390,1535
4394,1511
4398,1584
4402,1680
4406,1668
4410,1590
4414,1535
4418,1609
4422,1699
4426,1679
4430,1578
4434,1535
4438,1612
4442,1706
4446,1676
4450,1584
4454,1568
4458,1627
4462,1702
4466,1659
4470,1553
4474,1523
4478,1595
4482,1680
4486,1651
4490,1563
4494,1559
4498,1651
4502,1739
4506,1707
4510,1615
4514,1616
4518,1702
4522,1791
4526,1776
4530,1712
4534,1713
4538,1808
4542,1901
4546,1887
4550,1793
4554,1789
4558,1872
4562,1933
4566,1895
4570,1804
4574,1789
4578,1859
4582,1920
4586,1871
4590,1762
4594,1754
4598,1840
4602,1904
4606,1877
4610,1776
4614,1756
4618,1840
4622,1904
4626,1855
4630,1755
4634,1757
4638,1855
4642,1920
4646,1861
4650,1761
4654,1761
4658,1845
4662,1903
4666,1856
4670,1758
4674,1776
4678,1841
4682,1905
4686,1854
4690,1759
4694,1767
4698,1856
4702,1904
4706,1855
4710,1771
4714,1767
4718,1856
4722,1889
4726,1825
4730,1755
4734,1779
4738,1873
4742,1903
4746,1840
4750,1766
4754,1784
4758,1866
4762,1887
4766,1819
4770,1751
4774,1778
4778,1872
4782,1902
4786,1840
4790,1759
4794,1781
4798,1872
4802,1895
4806,1834
4810,1772
4814,1793
4818,1889
4822,1899
4826,1830
4830,1761
4834,1789
4838,1880
4842,1879
4846,1809
4850,1755
4854,1797
4858,1890
4862,1888
4866,1827
4870,1773
4874,1797
4878,1894
4882,1917
4886,1841
4890,1763
4894,1764
4898,1860
4902,1893
4906,1834
4910,1760
4914,1781
4918,1873
4922,1877
4926,1816
4930,1754
4934,1790
4938,1889
4942,1899
4946,1831
4950,1772
4954,1798
4958,1877
4962,1876
4966,1815
4970,1771
4974,1808
4978,1885
4982,1880
4986,1823
4990,1776
4994,1824
4998,1915
5002,1897
5006,1805
5010,1742
5014,1779
5018,1879
5022,1871
5026,1800
5030,1765
5034,1807
5038,1891
5042,1881
5046,1809
5050,1759
5054,1791
5058,1890
5062,1887
5066,1808
5070,1749
5074,1791
5078,1881
5082,1873
5086,1807
5090,1781
5094,1823
5098,1911
5102,1929
5106,1879
5110,1863
5114,1905
5118,1997
5122,2019
5126,2017
5130,2032
5134,2104
5138,2207
5142,2166
5146,2025
5150,1917
5154,1904
5158,1949
5162,1904
5166,1808
5170,1756
5174,1779
5178,1846
5182,1819
5186,1728
5190,1684
5194,1734
5198,1821
5202,1799
5206,1712
5210,1681
5214,1737
5218,1813
5222,1776
5226,1693
5230,1664
5234,1730
5238,1813
5242,1790
5246,1680
5250,1584
5254,1520
5258,1500
5262,1423
5266,1303
5270,1383
5274,1950
5278,2741
5282,3670
5286,4095
5290,4095
5294,3815
5298,2928
5302,2197
5306,1754
5310,1611
5314,1601
5318,1679
5322,1692
5326,1607
5330,1535
5334,1561
5338,1631
5342,1605
5346,1508
5350,1475
5354,1535
5358,1614
5362,1595
5366,1505
5370,1502
5374,1583
5378,1650
5382,1618
5386,1523
5390,1507
5394,1585
5398,1673
5402,1643
5406,1535
5410,1535
5414,1616
5418,1674
5422,1630
5426,1555
5430,1568
5434,1651
5438,1713
5442,1652
5446,1552
5450,1535
5454,1631
5458,1698
5462,1666
5466,1575
5470,1554
5474,1632
5478,1697
5482,1652
5486,1561
5490,1535
5494,1625
5498,1695
5502,1669
5506,1583
5510,1583
5514,1674
5518,1749
5522,1723
5526,1626
5530,1616
5534,1712
5538,1802
5542,1774
5546,1695
5550,1719
5554,1838
5558,1910
5562,1881
5566,1790
5570,1793
5574,1891
5578,1949
5582,1904
5586,1811
5590,1808
5594,1889
5598,1936
5602,1873
5606,1768
5610,1762
5614,1857
5618,1904
5622,1852
5626,1759
5630,1763
5634,1847
5638,1901
5642,1840
5646,1739
5650,1742
5654,1840
5658,1893
5662,1844
5666,1745
5670,1749
5674,1847
5678,1897
5682,1840
5686,1751
5690,1763
5694,1850
5698,1878
5702,1822
5706,1731
5710,1742
5714,1842
5718,1893
5722,1847
5726,1747
5730,1741
5734,1840
5738,1889
5742,1833
5746,1741
5750,1749
5754,1847
5758,1904
5762,1840
5766,1754
5770,1757
5774,1862
5778,1865
5782,1796
5786,1733
5790,1765
5794,1843
5798,1855
5802,1787
5806,1710
5810,1734
5814,1847
5818,1869
5822,1802
5826,1754
5830,1766
5834,1853
5838,1872
5842,1807
5846,1727
5850,1749
5854,1872
5858,1915
5862,1833
5866,1715
5870,1741
5874,1819
5878,1840
5882,1776
5886,1719
5890,1745
5894,1843
5898,1856
5902,1779
5906,1714
5910,1749
5914,1863
5918,1874
5922,1807
5926,1729
5930,1743
5934,1837
5938,1853
5942,1776
5946,1712
5950,1738
5954,1851
5958,1859
5962,1790
5966,1715
5970,1744
5974,1872
5978,1878
5982,1808
5986,1776
5990,1853
5994,1977
5998,1975
6002,1887
6006,1840
6010,1920
6014,2081
6018,2151
6022,2122
6026,2065
6030,2089
6034,2149
6038,2093
6042,1935
6046,1808
6050,1807
6054,1889
6058,1869
6062,1744
6066,1678
6070,1722
6074,1838
6078,1818
6082,1711
6086,1639
6090,1674
6094,1785
6098,1788
6102,1697
6106,1647
6110,1686
6114,1780
6118,1773
6122,1676
6126,1637
6130,1683
6134,1777
6138,1717
6142,1519
6146,1362
6150,1341
6154,1411
6158,1455
6162,1757
6166,2371
6170,3253
6174,4095
6178,4095
6182,3566
6186,2701
6190,2140
6194,1901
6198,1776
6202,1603
6206,1506
6210,1557
6214,1680
6218,1680
6222,1587
6226,1535
6230,1587
6234,1663
6238,1631
6242,1529
6246,1498
6250,1574
6254,1681
6258,1667
6262,1535
6266,1504
6270,1582
6274,1693
6278,1681
6282,1565
6286,1535
6290,1606
6294,1694
6298,1666
6302,1571
6306,1556
6310,1641
6314,1722
6318,1690
6322,1587
6326,1568
6330,1650
6334,1731
6338,1702
6342,1610
6346,1600
6350,1665
6354,1723
6358,1687
6362,1591
6366,1595
6370,1664
6374,1732
6378,1702
6382,1600
6386,1595
6390,1667
6394,1776
6398,1737
6402,1619
6406,1611
6410,1714
6414,1787
6418,1771
6422,1682
6426,1680
6430,1777
6434,1862
6438,1839
6442,1767
6446,1770
6450,1861
6454,1919
6458,1874
6462,1791
6466,1792
6470,1874
6474,1923
6478,1871
6482,1780
6486,1781
6490,1856
6494,1905
6498,1840
6502,1737
6506,1735
6510,1832
6514,1890
6518,1827
6522,1715
6526,1731
6530,1830
6534,1881
6538,1827
6542,1714
6546,1727
6550,1846
6554,1871
6558,1808
6562,1713
6566,1730
6570,1825
6574,1872
6578,1815
6582,1739
6586,1754
6590,1839
6594,1867
6598,1807
6602,1717
6606,1737
6610,1844
6614,1878
6618,1829
6622,1729
6626,1722
6630,1826
6634,1867
6638,1811
6642,1722
6646,1733
6650,1845
6654,1865
6658,1795
6662,1709
6666,1713
6670,1821
6674,1856
6678,1798
6682,1725
6686,1739
6690,1837
6694,1871
6698,1805
6702,1716
6706,1744
6710,1856
6714,1876
6718,1814
6722,1723
6726,1726
6730,1821
6734,1841
6738,1782
6742,1712
6746,1733
6750,1838
6754,1869
6758,1795
6762,1711
6766,1743
6770,1835
6774,1857
6778,1789
6782,1725
6786,1731
6790,1869
6794,1856
6798,1776
6802,1711
6806,1744
6810,1857
6814,1872
6818,1783
6822,1722
6826,1745
6830,1845
6834,1846
6838,1783
6842,1730
6846,1759
6850,1872
6854,1895
6858,1847
6862,1828
6866,1886
6870,1997
6874,1993
6878,1917
6882,1904
6886,2017
6890,2182
6894,2194
6898,2092
6902,1988
6906,1975
6910,2032
6914,1979
6918,1835
6922,1753
6926,1767
6930,1847
6934,1833
6938,1728
6942,1664
6946,1692
6950,1788
6954,1783
6958,1705
6962,1645
6966,1680
6970,1779
6974,1779
6978,1694
6982,1639
6986,1683
6990,1780
6994,1776
6998,1686
7002,1636
7006,1680
7010,1718
7014,1601
7018,1410
7022,1295
7026,1312
7030,1469
7034,1925
7038,2539
7042,3361
7046,4095
7050,4095
7054,4095
7058,3101
7062,2239
7066,1788
7070,1682
7074,1611
7078,1535
7082,1562
7086,1623
7090,1707
7094,1664
7098,1557
7102,1504
7106,1563
7110,1651
7114,1635
7118,1535
7122,1500
7126,1558
7130,1649
7134,1628
7138,1535
7142,1521
7146,1600
7150,1697
7154,1654
7158,1535
7162,1520
7166,1600
7170,1690
7174,1679
7178,1584
7182,1565
7186,1634
7190,1709
7194,1681
7198,1591
7202,1568
7206,1643
7210,1725
7214,1693
7218,1589
7222,1569
7226,1638
7230,1722
7234,1691
7238,1586
7242,1555
7246,1626
7250,1712
7254,1671
7258,1584
7262,1581
7266,1655
7270,1725
7274,1700
7278,1616
7282,1615
7286,1710
7290,1788
7294,1743
7298,1655
7302,1668
7306,1772
7310,1854
7314,1839
7318,1755
7322,1771
7326,1877
7330,1951
7334,1909
7338,1803
7342,1785
7346,1863
7350,1932
7354,1889
7358,1797
7362,1781
7366,1855
7370,1915
7374,1863
7378,1762
7382,1754
7386,1842
7390,1907
7394,1869
7398,1773
7402,1759
7406,1840
7410,1889
7414,1851
7418,1761
7422,1766
7426,1856
7430,1904
7434,1856
7438,1766
7442,1770
7446,1861
7450,1907
7454,1849
7458,1776
7462,1758
7466,1847
7470,1895
7474,1844
7478,1760
7482,1770
7486,1856
7490,1891
7494,1840
7498,1757
7502,1773
7506,1872
7510,1902
7514,1846
7518,1751
7522,1759
7526,1852
7530,1878
7534,1826
7538,1744
7542,1759
7546,1861
7550,1893
7554,1838
7558,1744
7562,1757
7566,1853
7570,1882
7574,1816
7578,1740
7582,1763
7586,1865
7590,1883
7594,1808
7598,1728
7602,1750
7606,1866
7610,1882
7614,1815
7618,1744
7622,1760
7626,1861
7630,1889
7634,1814
7638,1730
7642,1750
7646,1853
7650,1878
7654,1813
7658,1740
7662,1763
7666,1865
7670,1875
7674,1805
7678,1735
7682,1772
7686,1869
7690,1873
7694,1802
7698,1731
7702,1766
7706,1867
7710,1872
7714,1795
7718,1724
7722,1753
7726,1859
7730,1883
7734,1810
7738,1730
7742,1751
7746,1850
7750,1870
7754,1797
7758,1730
7762,1771
7766,1875
7770,1883
7774,1793
7778,1729
7782,1767
7786,1861
7790,1863
7794,1776
7798,1728
7802,1776
7806,1879
7810,1878
7814,1795
7818,1728
7822,1760
7826,1872
7830,1876
7834,1803
7838,1735
7842,1775
7846,1873
7850,1879
7854,1793
7858,1740
7862,1783
7866,1879
7870,1872
7874,1787
7878,1744
7882,1791
7886,1872
7890,1860
7894,1776
7898,1733
7902,1785
7906,1878
7910,1869
7914,1787
7918,1757
7922,1831
7926,1925
7930,1958
7934,1895
7938,1868
7942,1909
7946,2000
7950,2032
7954,2013
7958,2032
7962,2100
7966,2163
7970,2112
7974,1978
7978,1886
7982,1889
7986,1937
7990,1903
7994,1778
7998,1719
8002,1765
8006,1831
8010,1802
8014,1712
8018,1680
8022,1723
8026,1810
8030,1780
8034,1689
8038,1668
8042,1741
8046,1802
8050,1761
8054,1664
8058,1648
8062,1719
8066,1825
8070,1786
8074,1641
8078,1522
8082,1493
8086,1497
8090,1415
8094,1280
8098,1496
8102,2193
8106,3050
8110,4095
8114,4095
8118,4095
8122,3504
8126,2687
8130,2032
8134,1663
8138,1535
8142,1590
8146,1690
8150,1694
8154,1600
8158,1558
8162,1605
8166,1667
8170,1631
8174,1520
8178,1503
8182,1600
8186,1666
8190,1637
8194,1533
8198,1495
8202,1589
8206,1657
8210,1635
8214,1525
8218,1523
8222,1622
8226,1694
8230,1648
8234,1535
8238,1535
8242,1637
8246,1713
8250,1667
8254,1535
8258,1535
8262,1643
8266,1706
8270,1669
8274,1582
8278,1571
8282,1638
8286,1705
8290,1679
8294,1587
8298,1573
8302,1651
8306,1706
8310,1648
8314,1563
8318,1565
8322,1664
8326,1712
8330,1659
8334,1568
8338,1574
8342,1673
8346,1731
8350,1697
8354,1612
8358,1633
8362,1735
8366,1791
8370,1753
8374,1685
8378,1706
8382,1812
8386,1886
8390,1862
8394,1791
8398,1792
8402,1889
8406,1943
8410,1872
8414,1775
8418,1785
8422,1876
8426,1906
8430,1840
8434,1764
8438,1777
8442,1872
8446,1891
8450,1821
8454,1730
8458,1749
8462,1847
8466,1887
8470,1829
8474,1746
8478,1758
8482,1851
8486,1877
8490,1813
8494,1738
8498,1754
8502,1861
8506,1890
8510,1821
8514,1737
8518,1755
8522,1865
8526,1890
8530,1837
8534,1755
8538,1768
8542,1869
8546,1903
8550,1823
8554,1739
8558,1767
8562,1866
8566,1887
8570,1810
8574,1733
8578,1764
8582,1872
8586,1888
8590,1814
8594,1744
8598,1772
8602,1872
8606,1879
8610,1808
8614,1743
8618,1766
8622,1857
8626,1872
8630,1815
8634,1739
8638,1769
8642,1859
8646,1858
8650,1773
8654,1712
8658,1742
8662,1841
8666,1840
8670,1764
8674,1707
8678,1732
8682,1829
8686,1823
8690,1747
8694,1691
8698,1719
8702,1809
8706,1796
8710,1712
8714,1659
8718,1705
8722,1791
8726,1776
8730,1684
8734,1639
8738,1674
8742,1766
8746,1763
8750,1673
8754,1611
8758,1648
8762,1744
8766,1732
8770,1629
8774,1577
8778,1616
8782,1712
8786,1694
8790,1600
8794,1535
8798,1588
8802,1675
8806,1660
8810,1579
8814,1524
8818,1571
8822,1648
8826,1627
8830,1535
8834,1491
8838,1534
8842,1631
8846,1601
8850,1486
8854,1427
8858,1478
8862,1597
8866,1575
8870,1470
8874,1426
8878,1470
8882,1564
8886,1527
8890,1424
8894,1391
8898,1430
8902,1513
8906,1486
8910,1408
8914,1393
8918,1459
8922,1563
8926,1569
8930,1482
8934,1454
8938,1502
8942,1591
8946,1632
8950,1629
8954,1621
8958,1675
8962,1726
8966,1670
8970,1526
8974,1434
8978,1428
8982,1463
8986,1430
8990,1335
8994,1297
8998,1360
9002,1422
9006,1381
9010,1269
9014,1248
9018,1317
9022,1392
9026,1372
9030,1278
9034,1264
9038,1328
9042,1395
9046,1361
9050,1279
9054,1271
9058,1363
9062,1446
9066,1406
9070,1264
9074,1161
9078,1149
9082,1165
9086,1095
9090,1040
9094,1403
9098,2130
9102,2971
9106,3850
9110,3786
9114,3027
9118,2371
9122,1895
9126,1575
9130,1401
9134,1347
9138,1407
9142,1495
9146,1521
9150,1462
9154,1451
9158,1517
9162,1575
9166,1531
9170,1451
9174,1471
9178,1584
9182,1648
9186,1616
9190,1535
9194,1566
9198,1661
9202,1699
9206,1665
9210,1599
9214,1620
9218,1740
9222,1805
9226,1759
9230,1661
9234,1680
9238,1799
9242,1863
9246,1826
9250,1740
9254,1766
9258,1871
9262,1930
9266,1856
9270,1738
9274,1752
9278,1883
9282,1945
9286,1901
9290,1802
9294,1808
9298,1920
9302,1994
9306,1936
9310,1840
9314,1858
9318,1963
9322,2011
9326,1941
9330,1854
9334,1904
9338,2047
9342,2103
9346,2041
9350,1968
9354,2006
9358,2150
9362,2197
9366,2140
9370,2058
9374,2097
9378,2225
9382,2259
9386,2189
9390,2098
9394,2113
9398,2210
9402,2231
9406,2128
9410,2019
9414,2032
9418,2112
9422,2111
9426,2013
9430,1934
9434,1974
9438,2083
9442,2086
9446,1994
9450,1936
9454,1968
9458,2081
9462,2099
9466,2000
9470,1903
9474,1937
9478,2087
9482,2112
9486,2022
9490,1941
9494,1963
9498,2080
9502,2098
9506,2021
9510,1942
9514,1982
9518,2082
9522,2077
9526,1984
9530,1909
9534,1953
9538,2074
9542,2084
9546,1991
9550,1921
9554,1962
9558,2077
9562,2063
9566,1963
9570,1907
9574,1950
9578,2064
9582,2042
9586,1943
9590,1888
9594,1936
9598,2044
9602,2027
9606,1919
9610,1851
9614,1900
9618,2017
9622,2019
9626,1910
9630,1837
9634,1877
9638,1990
9642,1993
9646,1895
9650,1841
9654,1891
9658,1993
9662,1984
9666,1887
9670,1811
9674,1867
9678,1974
9682,1950
9686,1841
9690,1799
9694,1866
9698,1975
9702,1947
9706,1835
9710,1790
9714,1856
9718,1971
9722,1966
9726,1845
9730,1805
9734,1863
9738,1964
9742,1930
9746,1816
9750,1791
9754,1862
9758,1962
9762,1937
9766,1825
9770,1781
9774,1857
9778,1973
9782,1937
9786,1840
9790,1826
9794,1936
9798,2079
9802,2062
9806,1942
9810,1904
9814,1995
9818,2169
9822,2208
9826,2139
9830,2118
9834,2176
9838,2230
9842,2151
9846,1984
9850,1904
9854,1936
9858,2005
9862,1952
9866,1810
9870,1761
9874,1834
9878,1920
9882,1883
9886,1750
9890,1718
9894,1808
9898,1889
9902,1851
9906,1744
9910,1735
9914,1834
9918,1915
9922,1862
9926,1747
9930,1730
9934,1829
9938,1911
9942,1846
9946,1661
9950,1535
9954,1535
9958,1585
9962,1517
9966,1589
9970,2138
9974,2979
9978,4095
9982,4095
9986,4095
9990,3583
9994,2707
9998,2071
10002,1755
10006,1574
10010,1561
10014,1718
10018,1843
10022,1805
10026,1662
10030,1626
10034,1706
10038,1770
10042,1712
10046,1598
10050,1604
10054,1712
10058,1775
10062,1719
10066,1609
10070,1610
10074,1718
10078,1777
10082,1713
10086,1609
10090,1619
10094,1731
10098,1783
10102,1737
10106,1641
10110,1649
10114,1754
10118,1806
10122,1744
10126,1645
10130,1665
10134,1790
10138,1843
10142,1774
10146,1670
10150,1691
10154,1796
10158,1839
10162,1775
10166,1677
10170,1680
10174,1786
10178,1835
10182,1763
10186,1663
10190,1683
10194,1798
10198,1827
10202,1757
10206,1667
10210,1705
10214,1823
10218,1861
10222,1802
10226,1729
10230,1760
10234,1874
10238,1906
10242,1842
10246,1773
10250,1830
10254,1949
10258,1981
10262,1906
10266,1819
10270,1842
10274,1969
10278,1999
10282,1905
10286,1805
10290,1815
10294,1923
10298,1925
10302,1818
10306,1713
10310,1742
10314,1858
10318,1872
10322,1789
10326,1711
10330,1744
10334,1874
10338,1885
10342,1805
10346,1729
10350,1766
10354,1888
10358,1906
10362,1834
10366,1766
10370,1808
10374,1935
10378,1944
10382,1854
10386,1785
10390,1827
10394,1933
10398,1910
10402,1807
10406,1738
10410,1789
10414,1919
10418,1917
10422,1809
10426,1744
10430,1789
10434,1904
10438,1904
10442,1804
10446,1731
10450,1778
10454,1902
10458,1900
10462,1797
10466,1730
10470,1780
10474,1908
10478,1902
10482,1789
10486,1725
10490,1783
10494,1901
10498,1890
10502,1790
10506,1731
10510,1782
10514,1892
10518,1875
10522,1764
10526,1715
10530,1779
10534,1903
10538,1885
10542,1767
10546,1712
10550,1781
10554,1902
10558,1886
10562,1767
10566,1712
10570,1781
10574,1900
10578,1887
10582,1769
10586,1706
10590,1776
10594,1895
10598,1868
10602,1750
10606,1712
10610,1791
10614,1899
10618,1864
10622,1747
10626,1717
10630,1807
10634,1904
10638,1871
10642,1749
10646,1717
10650,1797
10654,1899
10658,1869
10662,1755
10666,1712
10670,1793
10674,1904
10678,1859
10682,1736
10686,1710
10690,1808
10694,1904
10698,1867
10702,1744
10706,1717
10710,1810
10714,1904
10718,1868
10722,1753
10726,1721
10730,1803
10734,1895
10738,1861
10742,1743
10746,1712
10750,1795
10754,1890
10758,1851
10762,1733
10766,1712
10770,1801
10774,1878
10778,1839
10782,1726
10786,1727
10790,1824
10794,1897
10798,1846
10802,1735
10806,1744
10810,1873
10814,1998
10818,1975
10822,1869
10826,1856
10830,1951
10834,2064
10838,2096
10842,2033
10846,2039
10850,2117
10854,2148
10858,2043
10862,1872
10866,1809
10870,1863
10874,1904
10878,1830
10882,1703
10886,1687
10890,1775
10894,1818
10898,1749
10902,1631
10906,1637
10910,1743
10914,1801
10918,1735
10922,1619
10926,1631
10930,1738
10934,1787
10938,1723
10942,1616
10946,1627
10950,1751
10954,1800
10958,1709
10962,1511
10966,1414
10970,1456
10974,1473
10978,1379
10982,1493
10986,2128
10990,2977
10994,4095
10998,4095
11002,4095
11006,3413
11010,2559
11014,1950
11018,1591
11022,1391
11026,1431
11030,1629
11034,1758
11038,1670
11042,1523
11046,1518
11050,1631
11054,1652
11058,1568
11062,1463
11066,1479
11070,1616
11074,1651
11078,1567
11082,1472
11086,1509
11090,1646
11094,1674
11098,1584
11102,1483
11106,1509
11110,1647
11114,1679
11118,1606
11122,1511
11126,1535
11130,1678
11134,1698
11138,1620
11142,1524
11146,1563
11150,1682
11154,1709
11158,1618
11162,1533
11166,1579
11170,1702
11174,1715
11178,1620
11182,1530
11186,1567
11190,1694
11194,1717
11198,1619
11202,1531
11206,1571
11210,1702
11214,1725
11218,1628
11222,1535
11226,1602
11230,1744
11234,1757
11238,1671
11242,1602
11246,1663
11250,1804
11254,1828
11258,1747
11262,1694
11266,1760
11270,1905
11274,1919
11278,1823
11282,1755
11286,1804
11290,1931
11294,1921
11298,1808
11302,1744
11306,1791
11310,1905
11314,1898
11318,1786
11322,1709
11326,1755
11330,1877
11334,1869
11338,1756
11342,1686
11346,1745
11350,1862
11354,1851
11358,1737
11362,1680
11366,1739
11370,1862
11374,1853
11378,1745
11382,1697
11386,1763
11390,1877
11394,1855
11398,1737
11402,1679
11406,1754
11410,1872
11414,1845
11418,1734
11422,1696
11426,1763
11430,1887
11434,1863
11438,1740
11442,1696
11446,1763
11450,1872
11454,1852
11458,1741
11462,1698
11466,1763
11470,1871
11474,1844
11478,1731
11482,1696
11486,1776
11490,1875
11494,1847
11498,1730
11502,1690
11506,1773
11510,1872
11514,1841
11518,1717
11522,1681
11526,1772
11530,1877
11534,1840
11538,1726
11542,1694
11546,1775
11550,1869
11554,1835
11558,1711
11562,1674
11566,1763
11570,1859
11574,1818
11578,1699
11582,1678
11586,1765
11590,1854
11594,1814
11598,1699
11602,1670
11606,1760
11610,1853
11614,1823
11618,1722
11622,1712
11626,1783
11630,1845
11634,1802
11638,1687
11642,1687
11646,1790
11650,1872
11654,1817
11658,1699
11662,1695
11666,1791
11670,1871
11674,1828
11678,1708
11682,1696
11686,1795
11690,1872
11694,1825
11698,1703
11702,1697
11706,1808
11710,1877
11714,1809
11718,1700
11722,1712
11726,1815
11730,1872
11734,1810
11738,1697
11742,1707
11746,1810
11750,1882
11754,1826
11758,1709
11762,1713
11766,1821
11770,1878
11774,1824
11778,1712
11782,1727
11786,1838
11790,1892
11794,1826
11798,1709
11802,1728
11806,1839
11810,1878
11814,1813
11818,1709
11822,1723
11826,1852
11830,1904
11834,1827
11838,1714
11842,1741
11846,1859
11850,1904
11854,1829
11858,1737
11862,1767
11866,1899
11870,1963
11874,1917
11878,1839
11882,1861
11886,1982
11890,2038
11894,2022
11898,1974
11902,2031
11906,2185
11910,2214
11914,2089
11918,1915
11922,1868
11926,1927
11930,1919
11934,1844
11938,1743
11942,1747
11946,1847
11950,1859
11954,1767
11958,1661
11962,1683
11966,1808
11970,1835
11974,1748
11978,1657
11982,1682
11986,1823
11990,1841
11994,1740
11998,1637
12002,1671
12006,1808
12010,1836
12014,1743
12018,1622
12022,1571
12026,1600
12030,1535
12034,1409
12038,1312
12042,1584
12046,2256
12050,3015
12054,3984
12058,4095
12062,3815
12066,3015
12070,2327
12074,1802
12078,1599
12082,1596
12086,1699
12090,1691
12094,1616
12098,1591
12102,1637
12106,1742
12110,1725
12114,1625
12118,1535
12122,1600
12126,1718
12130,1714
12134,1621
12138,1559
12142,1615
12146,1726
12150,1727
12154,1634
12158,1584
12162,1635
12166,1755
12170,1746
12174,1649
12178,1600
12182,1651
12186,1776
12190,1770
12194,1663
12198,1614
12202,1675
12206,1799
12210,1786
12214,1680
12218,1629
12222,1689
12226,1799
12230,1776
12234,1679
12238,1631
12242,1703
12246,1815
12250,1791
12254,1674
12258,1623
12262,1707
12266,1822
12270,1803
12274,1698
12278,1655
12282,1731
12286,1843
12290,1838
12294,1741
12298,1707
12302,1787
12306,1903
12310,1901
12314,1801
12318,1775
12322,1855
12326,1968
12330,1952
12334,1853
12338,1827
12342,1902
12346,1989
12350,1947
12354,1831
12358,1786
12362,1847
12366,1933
12370,1887
12374,1762
12378,1728
12382,1808
12386,1898
12390,1856
12394,1733
12398,1706
12402,1791
12406,1893
12410,1862
12414,1742
12418,1713
12422,1795
12426,1886
12430,1846
12434,1729
12438,1711
12442,1799
12446,1895
12450,1851
12454,1728
12458,1712
12462,1807
12466,1899
12470,1845
12474,1727
12478,1715
12482,1811
12486,1895
12490,1849
12494,1734
12498,1722
12502,1819
12506,1895
12510,1841
12514,1731
12518,1723
12522,1825
12526,1902
12530,1842
12534,1727
12538,1727
12542,1829
12546,1898
12550,1846
12554,1737
12558,1735
12562,1840
12566,1906
12570,1856
12574,1741
12578,1739
12582,1840
12586,1904
12590,1850
12594,1739
12598,1744
12602,1853
12606,1914
12610,1847
12614,1733
12618,1744
12622,1862
12626,1915
12630,1845
12634,1731
12638,1744
12642,1856
12646,1913
12650,1850
12654,1735
12658,1745
12662,1858
12666,1911
12670,1847
12674,1738
12678,1751
12682,1863
12686,1910
12690,1840
12694,1735
12698,1761
12702,1877
12706,1916
12710,1840
12714,1738
12718,1761
12722,1883
12726,1920
12730,1839
12734,1734
12738,1755
12742,1873
12746,1904
12750,1826
12754,1725
12758,1755
12762,1872
12766,1905
12770,1819
12774,1722
12778,1755
12782,1875
12786,1904
12790,1815
12794,1719
12798,1748
12802,1875
12806,1901
12810,1808
12814,1712
12818,1746
12822,1873
12826,1902
12830,1810
12834,1719
12838,1750
12842,1875
12846,1890
12850,1797
12854,1712
12858,1746
12862,1879
12866,1914
12870,1829
12874,1764
12878,1866
12882,2057
12886,2071
12890,1952
12894,1840
12898,1911
12902,2097
12906,2176
12910,2117
12914,2055
12918,2066
12922,2127
12926,2055
12930,1900
12934,1767
12938,1777
12942,1887
12946,1871
12950,1757
12954,1668
12958,1712
12962,1821
12966,1808
12970,1705
12974,1629
12978,1675
12982,1799
12986,1793
12990,1686
12994,1616
12998,1669
13002,1793
13006,1782
13010,1674
13014,1611
13018,1665
13022,1773
13026,1712
13030,1502
13034,1339
13038,1350
13042,1465
13046,1467
13050,1749
13054,2387
13058,3271
13062,4095
13066,4095
13070,4095
13074,3180
13078,2282
13082,1783
13086,1554
13090,1399
13094,1419
13098,1582
13102,1732
13106,1697
13110,1569
13114,1465
13118,1521
13122,1633
13126,1615
13130,1488
13134,1446
13138,1520
13142,1630
13146,1611
13150,1492
13154,1486
13158,1520
13162,1653
13166,1631
13170,1509
13174,1460
13178,1565
13182,1674
13186,1648
13190,1531
13194,1503
13198,1593
13202,1695
13206,1665
13210,1555
13214,1529
13218,1616
13222,1713
13226,1679
13230,1559
13234,1535
13238,1631
13242,1728
13246,1686
13250,1566
13254,1535
13258,1634
13262,1727
13266,1680
13270,1563
13274,1535
13278,1645
13282,1739
13286,1707
13290,1591
13294,1583
13298,1682
13302,1776
13306,1744
13310,1646
13314,1647
13318,1757
13322,1859
13326,1832
13330,1727
13334,1731
13338,1842
13342,1936
13346,1898
13350,1783
13354,1782
13358,1879
13362,1951
13366,1891
13370,1762
13374,1744
13378,1845
13382,1916
13386,1855
13390,1725
13394,1718
13398,1821
13402,1889
13406,1830
13410,1713
13414,1712
13418,1818
13422,1885
13426,1823
13430,1711
13434,1727
13438,1835
13442,1892
13446,1827
13450,1721
13454,1729
13458,1840
13462,1904
13466,1840
13470,1730
13474,1741
13478,1853
13482,1908
13486,1838
13490,1721
13494,1741
13498,1856
13502,1909
13506,1843
13510,1744
13514,1756
13518,1867
13522,1915
13526,1843
13530,1739
13534,1753
13538,1871
13542,1914
13546,1840
13550,1733
13554,1744
13558,1867
13562,1909
13566,1840
13570,1735
13574,1754
13578,1878
13582,1917
13586,1829
13590,1726
13594,1749
13598,1870
13602,1902
13606,1822
13610,1726
13614,1755
13618,1872
13622,1905
13626,1829
13630,1733
13634,1761
13638,1885
13642,1914
13646,1831
13650,1729
13654,1765
13658,1890
13662,1909
13666,1825
13670,1738
13674,1775
13678,1895
13682,1910
13686,1822
13690,1731
13694,1763
13698,1883
13702,1904
13706,1819
13710,1739
13714,1776
13718,1893
13722,1908
13726,1813
13730,1735
13734,1778
13738,1905
13742,1906
13746,1801
13750,1715
13754,1774
13758,1902
13762,1907
13766,1808
13770,1732
13774,1763
13778,1887
13782,1897
13786,1805
13790,1728
13794,1771
13798,1897
13802,1902
13806,1793
13810,1718
13814,1776
13818,1905
13822,1897
13826,1783
13830,1723
13834,1779
13838,1904
13842,1901
13846,1792
13850,1723
13854,1777
13858,1897
13862,1891
13866,1785
13870,1726
13874,1791
13878,1911
13882,1899
13886,1791
13890,1725
13894,1783
13898,1905
13902,1893
13906,1779
13910,1729
13914,1790
13918,1903
13922,1895
13926,1787
13930,1733
13934,1799
13938,1906
13942,1897
13946,1792
13950,1743
13954,1805
13958,1919
13962,1901
13966,1788
13970,1743
13974,1808
13978,1920
13982,1904
13986,1792
13990,1757
13994,1869
13998,2023
14002,2029
14006,1915
14010,1862
14014,1949
14018,2128
14022,2174
14026,2083
14030,2064
14034,2133
14038,2187
14042,2083
14046,1904
14050,1824
14054,1861
14058,1937
14062,1891
14066,1770
14070,1722
14074,1787
14078,1872
14082,1824
14086,1700
14090,1665
14094,1754
14098,1845
14102,1808
14106,1691
14110,1671
14114,1758
14118,1850
14122,1808
14126,1680
14130,1658
14134,1745
14138,1835
14142,1758
14146,1535
14150,1407
14154,1424
14158,1469
14162,1426
14166,1669
14170,2347
14174,3270
14178,4095
14182,4095
14186,4095
14190,3290
14194,2475
14198,1959
14202,1675
14206,1471
14210,1487
14214,1675
14218,1789
14222,1722
14226,1574
14230,1521
14234,1623
14238,1698
14242,1636
14246,1502
14250,1491
14254,1603
14258,1680
14262,1628
14266,1499
14270,1503
14274,1627
14278,1699
14282,1632
14286,1505
14290,1508
14294,1629
14298,1706
14302,1648
14306,1522
14310,1524
14314,1650
14318,1728
14322,1662
14326,1535
14330,1561
14334,1680
14338,1738
14342,1666
14346,1535
14350,1555
14354,1667
14358,1714
14362,1648
14366,1535
14370,1565
14374,1684
14378,1730
14382,1655
14386,1535
14390,1571
14394,1701
14398,1751
14402,1694
14406,1584
14410,1600
14414,1725
14418,1785
14422,1734
14426,1637
14430,1667
14434,1807
14438,1869
14442,1815
14446,1728
14450,1766
14454,1908
14458,1965
14462,1903
14466,1799
14470,1814
14474,1936
14478,1968
14482,1882
14486,1783
14490,1803
14494,1917
14498,1938
14502,1844
14506,1737
14510,1758
14514,1881
14518,1904
14522,1821
14526,1725
14530,1755
14534,1872
14538,1887
14542,1803
14546,1715
14550,1747
14554,1874
14558,1904
14562,1819
14566,1717
14570,1747
14574,1872
14578,1882
14582,1791
14586,1712
14590,1753
14594,1875
14598,1897
14602,1811
14606,1741
14610,1770
14614,1881
14618,1899
14622,1797
14626,1724
14630,1766
14634,1893
14638,1887
14642,1779
14646,1707
14650,1757
14654,1897
14658,1901
14662,1793
14666,1718
14670,1771
14674,1878
14678,1875
14682,1786
14686,1717
14690,1767
14694,1887
14698,1882
14702,1783
14706,1729
14710,1779
14714,1893
14718,1887
14722,1779
14726,1715
14730,1774
14734,1897
14738,1889
14742,1787
14746,1723
14750,1779
14754,1902
14758,1890
14762,1775
14766,1715
14770,1781
14774,1904
14778,1878
14782,1769
14786,1721
14790,1765
14794,1889
14798,1885
14802,1770
14806,1715
14810,1776
14814,1895
14818,1872
14822,1771
14826,1716
14830,1787
14834,1899
14838,1877
14842,1767
14846,1726
14850,1787
14854,1887
14858,1859
14862,1747
14866,1719
14870,1794
14874,1904
14878,1872
14882,1760
14886,1713
14890,1791
14894,1904
14898,1879
14902,1763
14906,1723
14910,1814
14914,1904
14918,1872
14922,1745
14926,1712
14930,1794
14934,1904
14938,1872
14942,1755
14946,1722
14950,1801
14954,1899
14958,1866
14962,1751
14966,1719
14970,1808
14974,1910
14978,1872
14982,1746
14986,1731
14990,1828
14994,1927
14998,1925
15002,1852
15006,1843
15010,1927
15014,1995
15018,1976
15022,1936
15026,1991
15030,2139
15034,2251
15038,2173
15042,1986
15046,1901
15050,1936
15054,1968
15058,1883
15062,1746
15066,1719
15070,1804
15074,1859
15078,1795
15082,1673
15086,1651
15090,1737
15094,1808
15098,1756
15102,1648
15106,1635
15110,1734
15114,1808
15118,1751
15122,1648
15126,1648
15130,1742
15134,1793
15138,1731
15142,1604
15146,1561
15150,1574
15154,1532
15158,1408
15162,1272
15166,1319
15170,1853
15174,2621
15178,3455
15182,4095
15186,4095
15190,4017
15194,3025
15198,2194
15202,1639
15206,1499
15210,1584
15214,1668
15218,1648
15222,1579
15226,1582
15230,1662
15234,1680
15238,1600
15242,1488
15246,1499
15250,1627
15254,1691
15258,1600
15262,1488
15266,1510
15270,1643
15274,1680
15278,1618
15282,1489
15286,1525
15290,1664
15294,1694
15298,1620
15302,1520
15306,1561
15310,1687
15314,1728
15318,1657
15322,1555
15326,1590
15330,1731
15334,1755
15338,1664
15342,1563
15346,1601
15350,1732
15354,1746
15358,1661
15362,1567
15366,1607
15370,1740
15374,1765
15378,1663
15382,1564
15386,1606
15390,1744
15394,1785
15398,1687
15402,1599
15406,1631
15410,1774
15414,1799
15418,1723
15422,1643
15426,1695
15430,1822
15434,1846
15438,1763
15442,1689
15446,1761
15450,1920
15454,1954
15458,1872
15462,1793
15466,1840
15470,1965
15474,1975
15478,1885
15482,1793
15486,1835
15490,1939
15494,1941
15498,1837
15502,1740
15506,1785
15510,1906
15514,1903
15518,1805
15522,1726
15526,1770
15530,1889
15534,1899
15538,1791
15542,1716
15546,1769
15550,1894
15554,1900
15558,1806
15562,1729
15566,1776
15570,1901
15574,1895
15578,1794
15582,1730
15586,1789
15590,1905
15594,1890
15598,1773
15602,1712
15606,1776
15610,1904
15614,1888
15618,1777
15622,1715
15626,1790
15630,1908
15634,1883
15638,1768
15642,1713
15646,1779
15650,1895
15654,1878
15658,1774
15662,1712
15666,1767
15670,1877
15674,1862
15678,1766
15682,1728
15686,1791
15690,1897
15694,1893
15698,1754
15702,1721
15706,1788
15710,1904
15714,1871
15718,1743
15722,1702
15726,1792
15730,1903
15734,1871
15738,1755
15742,1711
15746,1786
15750,1895
15754,1887
15758,1760
15762,1728
15766,1798
15770,1904
15774,1877
15778,1742
15782,1691
15786,1791
15790,1913
15794,1881
15798,1754
15802,1718
15806,1802
15810,1906
15814,1864
15818,1743
15822,1729
15826,1813
15830,1902
15834,1865
15838,1740
15842,1705
15846,1818
15850,1922
15854,1884
15858,1764
15862,1747
15866,1840
15870,1922
15874,1872
15878,1744
15882,1715
15886,1803
15890,1906
15894,1872
15898,1765
15902,1763
15906,1861
15910,1915
15914,1863
15918,1757
15922,1750
15926,1840
15930,1919
15934,1875
15938,1747
15942,1749
15946,1856
15950,1930
15954,1883
15958,1771
15962,1776
15966,1871
15970,1933
15974,1873
15978,1763
15982,1765
15986,1872
15990,1940
15994,1887
15998,1767
16002,1761
16006,1868
16010,1946
16014,1876
16018,1752
16022,1766
16026,1887
16030,1935
16034,1871
16038,1746
16042,1732
16046,1852
16050,1934
16054,1867
16058,1763
16062,1778
16066,1934
16070,2041
16074,1999
16078,1872
16082,1859
16086,1979
16090,2085
16094,2086
16098,2031
16102,2064
16106,2167
16110,2165
16114,2005
16118,1840
16122,1821
16126,1902
16130,1939
16134,1840
16138,1706
16142,1719
16146,1825
16150,1853
16154,1773
16158,1666
16162,1677
16166,1781
16170,1825
16174,1767
16178,1679
16182,1687
16186,1785
16190,1806
16194,1730
16198,1634
16202,1665
16206,1788
16210,1810
16214,1674
16218,1437
16222,1343
16226,1392
16230,1360
16234,1293
16238,1675
16242,2457
16246,3519
16250,4095
16254,4095
16258,4095
16262,3238
16266,2526
16270,2041
16274,1741
16278,1505
16282,1511
16286,1663
16290,1725
16294,1616
16298,1499
16302,1517
16306,1629
16310,1634
16314,1525
16318,1426
16322,1491
16326,1635
16330,1629
16334,1531
16338,1450
16342,1488
16346,1621
16350,1653
16354,1555
16358,1477
16362,1520
16366,1646
16370,1659
16374,1563
16378,1487
16382,1535
16386,1670
16390,1682
16394,1589
16398,1504
16402,1559
16406,1675
16410,1691
16414,1616
16418,1521
16422,1535
16426,1680
16430,1678
16434,1584
16438,1506
16442,1559
16446,1689
16450,1681
16454,1580
16458,1499
16462,1557
16466,1698
16470,1687
16474,1570
16478,1511
16482,1595
16486,1744
16490,1725
16494,1610
16498,1552
16502,1637
16506,1775
16510,1791
16514,1713
16518,1673
16522,1767
16526,1901
16530,1893
16534,1797
16538,1759
16542,1838
16546,1950
16550,1936
16554,1824
16558,1777
16562,1838
16566,1936
16570,1936
16574,1817
16578,1745
16582,1813
16586,1949
16590,1933
16594,1811
16598,1751
16602,1808
16606,1942
16610,1926
16614,1792
16618,1753
16622,1826
16626,1958
16630,1920
16634,1777
16638,1737
16642,1825
16646,1938
16650,1918
16654,1794
16658,1760
16662,1842
16666,1947
16670,1903
16674,1790
16678,1756
16682,1838
16686,1934
16690,1899
16694,1790
16698,1757
16702,1857
16706,1936
16710,1891
16714,1784
16718,1749
16722,1841
16726,1924
16730,1877
16734,1762
16738,1744
16742,1835
16746,1935
16750,1893
16754,1763
16758,1734
16762,1850
16766,1936
16770,1872
16774,1743
16778,1741
16782,1843
16786,1929
16790,1875
16794,1765
16798,1757
16802,1845
16806,1922
16810,1879
16814,1780
16818,1745
16822,1849
16826,1907
16830,1869
16834,1759
16838,1744
16842,1848
16846,1920
16850,1868
16854,1725
16858,1723
16862,1846
16866,1927
16870,1882
16874,1764
16878,1759
16882,1873
16886,1926
16890,1840
16894,1725
16898,1735
16902,1858
16906,1920
16910,1850
16914,1735
16918,1744
16922,1840
16926,1904
16930,1863
16934,1751
16938,1743
16942,1858
16946,1904
16950,1856
16954,1743
16958,1760
16962,1872
16966,1933
16970,1864
16974,1729
16978,1743
16982,1845
16986,1898
16990,1839
16994,1735
16998,1749
17002,1869
17006,1915
17010,1865
17014,1729
17018,1742
17022,1868
17026,1908
17030,1836
17034,1742
17038,1760
17042,1877
17046,1922
17050,1843
17054,1728
17058,1761
17062,1931
17066,2013
17070,1955
17074,1853
17078,1881
17082,2034
17086,2122
17090,2068
17094,1995
17098,2058
17102,2147
17106,2132
17110,2000
17114,1844
17118,1830
17122,1920
17126,1933
17130,1822
17134,1712
17138,1734
17142,1843
17146,1857
17150,1775
17154,1659
17158,1695
17162,1808
17166,1838
17170,1749
17174,1653
17178,1682
17182,1807
17186,1846
17190,1749
17194,1653
17198,1697
17202,1819
17206,1794
17210,1596
17214,1361
17218,1296
17222,1339
17226,1281
17230,1440
17234,2087
17238,3014
17242,4095
17246,4095
17250,4095
17254,3821
17258,2914
17262,2348
17266,1987
17270,1693
17274,1450
17278,1479
17282,1664
17286,1698
17290,1593
17294,1485
17298,1517
17302,1647
17306,1648
17310,1531
17314,1442
17318,1492
17322,1630
17326,1645
17330,1563
17334,1453
17338,1488
17342,1633
17346,1651
17350,1535
17354,1488
17358,1534
17362,1678
17366,1685
17370,1556
17374,1494
17378,1535
17382,1674
17386,1680
17390,1562
17394,1526
17398,1559
17402,1695
17406,1691
17410,1569
17414,1519
17418,1575
17422,1682
17426,1668
17430,1567
17434,1505
17438,1577
17442,1686
17446,1674
17450,1570
17454,1502
17458,1565
17462,1687
17466,1668
17470,1579
17474,1523
17478,1606
17482,1731
17486,1728
17490,1615
17494,1590
17498,1686
17502,1809
17506,1789
17510,1693
17514,1694
17518,1807
17522,1895
17526,1862
17530,1776
17534,1759
17538,1841
17542,1968
17546,1923
17550,1806
17554,1766
17558,1846
17562,1951
17566,1904
17570,1789
17574,1751
17578,1837
17582,1936
17586,1910
17590,1802
17594,1758
17598,1839
17602,1926
17606,1901
17610,1771
17614,1753
17618,1858
17622,1923
17626,1875
17630,1765
17634,1761
17638,1839
17642,1919
17646,1879
17650,1758
17654,1737
17658,1839
17662,1923
17666,1876
17670,1765
17674,1751
17678,1847
17682,1925
17686,1888
17690,1766
17694,1749
17698,1826
17702,1893
17706,1845
17710,1745
17714,1744
17718,1856
17722,1930
17726,1872
17730,1758
17734,1756
17738,1850
17742,1927
17746,1867
17750,1745
17754,1744
17758,1845
17762,1935
17766,1877
17770,1755
17774,1744
17778,1842
17782,1903
17786,1850
17790,1729
17794,1734
17798,1845
17802,1907
17806,1855
17810,1744
17814,1744
17818,1854
17822,1905
17826,1841
17830,1727
17834,1737
17838,1840
17842,1901
17846,1830
17850,1712
17854,1729
17858,1843
17862,1898
17866,1840
17870,1735
17874,1728
17878,1840
17882,1890
17886,1823
17890,1711
17894,1727
17898,1855
17902,1904
17906,1827
17910,1707
17914,1729
17918,1856
17922,1903
17926,1822
17930,1718
17934,1745
17938,1849
17942,1887
17946,1814
17950,1699
17954,1727
17958,1860
17962,1903
17966,1810
17970,1710
17974,1744
17978,1862
17982,1897
17986,1818
17990,1725
17994,1753
17998,1874
18002,1904
18006,1827
18010,1735
18014,1762
18018,1883
18022,1924
18026,1885
18030,1826
18034,1872
18038,1981
18042,2010
18046,1984
18050,1959
18054,2020
18058,2162
18062,2178
18066,2054
18070,1909
18074,1901
18078,1991
18082,1936
18086,1810
18090,1720
18094,1754
18098,1857
18102,1859
18106,1746
18110,1648
18114,1689
18118,1807
18122,1817
18126,1733
18130,1648
18134,1689
18138,1808
18142,1808
18146,1710
18150,1637
18154,1687
18158,1812
18162,1813
18166,1702
18170,1535
18174,1467
18178,1479
18182,1393
18186,1249
18190,1247
18194,1792
18198,2663
18202,3679
18206,4095
18210,4095
18214,3708
18218,2969
18222,2309
18226,1843
18230,1641
18234,1597
18238,1650
18242,1661
18246,1590
18250,1523
18254,1553
18258,1659
18262,1648
18266,1535
18270,1475
18274,1527
18278,1639
18282,1634
18286,1526
18290,1467
18294,1531
18298,1673
18302,1660
18306,1558
18310,1498
18314,1577
18318,1684
18322,1668
18326,1573
18330,1505
18334,1583
18338,1687
18342,1674
18346,1573
18350,1526
18354,1601
18358,1717
18362,1697
18366,1588
18370,1535
18374,1626
18378,1735
18382,1698
18386,1584
18390,1526
18394,1648
18398,1725
18402,1703
18406,1583
18410,1567
18414,1616
18418,1755
18422,1727
18426,1602
18430,1579
18434,1664
18438,1790
18442,1779
18446,1667
18450,1648
18454,1744
18458,1848
18462,1837
18466,1743
18470,1726
18474,1809
18478,1932
18482,1920
18486,1815
18490,1785
18494,1868
18498,1970
18502,1931
18506,1798
18510,1766
18514,1854
18518,1942
18522,1899
18526,1781
18530,1762
18534,1840
18538,1914
18542,1877
18546,1776
18550,1758
18554,1835
18558,1922
18562,1871
18566,1744
18570,1735
18574,1840
18578,1915
18582,1865
18586,1745
18590,1734
18594,1830
18598,1922
18602,1878
18606,1753
18610,1726
18614,1817
18618,1909
18622,1883
18626,1749
18630,1723
18634,1819
18638,1898
18642,1857
18646,1750
18650,1729
18654,1829
18658,1899
18662,1854
18666,1739
18670,1734
18674,1841
18678,1911
18682,1861
18686,1744
18690,1742
18694,1840
18698,1927
18702,1872
18706,1741
18710,1718
18714,1825
18718,1903
18722,1855
18726,1747
18730,1745
18734,1847
18738,1907
18742,1850
18746,1734
18750,1743
18754,1862
18758,1943
18762,1886
18766,1741
18770,1732
18774,1843
18778,1920
18782,1872
18786,1755
18790,1761
18794,1867
18798,1909
18802,1843
18806,1739
18810,1754
18814,1871
18818,1929
18822,1887
18826,1817
18830,1875
18834,2030
18838,2076
18842,1986
18846,1876
18850,1943
18854,2130
18858,2223
18862,2193
18866,2109
18870,2117
18874,2197
18878,2192
18882,2063
18886,1871
18890,1819
18894,1882
18898,1900
18902,1798
18906,1683
18910,1709
18914,1822
18918,1858
18922,1755
18926,1631
18930,1655
18934,1782
18938,1809
18942,1726
18946,1631
18950,1663
18954,1782
18958,1808
18962,1727
18966,1635
18970,1662
18974,1778
18978,1753
18982,1571
18986,1347
18990,1308
18994,1392
18998,1428
19002,1763
19006,2384
19010,3296
19014,4095
19018,4095
19022,4095
19026,3255
19030,2391
19034,1921
19038,1686
19042,1514
19046,1467
19050,1607
19054,1759
19058,1750
19062,1611
19066,1502
19070,1535
19074,1677
19078,1679
19082,1577
19086,1488
19090,1535
19094,1691
19098,1698
19102,1584
19106,1491
19110,1521
19114,1667
19118,1689
19122,1605
19126,1520
19130,1575
19134,1705
19138,1710
19142,1600
19146,1522
19150,1586
19154,1711
19158,1713
19162,1618
19166,1535
19170,1602
19174,1744
19178,1742
19182,1638
19186,1562
19190,1616
19194,1739
19198,1729
19202,1627
19206,1553
19210,1609
19214,1740
19218,1719
19222,1595
19226,1535
19230,1611
19234,1735
19238,1715
19242,1607
19246,1561
19250,1641
19254,1763
19258,1757
19262,1653
19266,1614
19270,1699
19274,1842
19278,1853
19282,1765
19286,1720
19290,1820
19294,1946
19298,1926
19302,1817
19306,1782
19310,1861
19314,1975
19318,1937
19322,1823
19326,1775
19330,1840
19334,1948
19338,1929
19342,1802
19346,1750
19350,1819
19354,1937
19358,1918
19362,1805
19366,1764
19370,1845
19374,1938
19378,1898
19382,1791
19386,1752
19390,1841
19394,1943
19398,1907
19402,1784
19406,1765
19410,1842
19414,1936
19418,1907
19422,1781
19426,1744
19430,1821
19434,1936
19438,1905
19442,1806
19446,1750
19450,1831
19454,1927
19458,1909
19462,1782
19466,1750
19470,1843
19474,1926
19478,1887
19482,1770
19486,1746
19490,1837
19494,1935
19498,1893
19502,1771
19506,1764
19510,1840
19514,1922
19518,1885
19522,1783
19526,1740
19530,1826
19534,1921
19538,1889
19542,1775
19546,1754
19550,1842
19554,1918
19558,1870
19562,1760
19566,1751
19570,1853
19574,1925
19578,1875
19582,1746
19586,1727
19590,1829
19594,1905
19598,1871
19602,1762
19606,1753
19610,1827
19614,1899
19618,1841
19622,1730
19626,1728
19630,1840
19634,1919
19638,1853
19642,1741
19646,1745
19650,1839
19654,1906
19658,1854
19662,1727
19666,1744
19670,1853
19674,1909
19678,1842
19682,1718
19686,1740
19690,1860
19694,1903
19698,1831
19702,1713
19706,1729
19710,1859
19714,1906
19718,1831
19722,1725
19726,1736
19730,1840
19734,1899
19738,1837
19742,1727
19746,1744
19750,1851
19754,1901
19758,1838
19762,1730
19766,1744
19770,1849
19774,1909
19778,1837
19782,1715
19786,1735
19790,1860
19794,1915
19798,1828
19802,1705
19806,1739
19810,1870
19814,1927
19818,1891
19822,1827
19826,1871
19830,1988
19834,2000
19838,1975
19842,1954
19846,2061
19850,2176
19854,2155
19858,2029
19862,1903
19866,1909
19870,1994
19874,1955
19878,1835
19882,1718
19886,1747
19890,1890
19894,1874
19898,1786
19902,1712
19906,1718
19910,1872
19914,1917
19918,1751
19922,1674
19926,1759
19930,1776
19934,1765
19938,1682
19942,1606
19946,1648
19950,1783
19954,1813
19958,1715
19962,1600
19966,1554
19970,1584
19974,1501
19978,1354
19982,1226
19986,1462
19990,2224
19994,3001
19998,4048
20002,4095
20006,4095
20010,3855
20014,2897
20018,2115
20022,1674
20026,1564
20030,1628
20034,1683
20038,1641
20042,1563
20046,1589
20050,1694
20054,1655
20058,1535
20062,1474
20066,1535
20070,1647
20074,1635
20078,1535
20082,1470
20086,1522
20090,1668
20094,1663
20098,1554
20102,1507
20106,1584
20110,1702
20114,1677
20118,1557
20122,1494
20126,1584
20130,1714
20134,1682
20138,1593
20142,1523
20146,1580
20150,1698
20154,1706
20158,1599
20162,1530
20166,1597
20170,1722
20174,1749
20178,1602
20182,1511
20186,1589
20190,1699
20194,1703
20198,1584
20202,1507
20206,1570
20210,1682
20214,1669
20218,1573
20222,1535
20226,1635
20230,1763
20234,1765
20238,1615
20242,1568
20246,1712
20250,1872
20254,1804
20258,1691
20262,1643
20266,1742
20270,1827
20274,1850
20278,1777
20282,1789
20286,1855
20290,1919
20294,1903
20298,1776
20302,1735
20306,1835
20310,1939
20314,1920
20318,1807
20322,1744
20326,1801
20330,1918
20334,1872
20338,1785
20342,1743
20346,1781
20350,1883
20354,1854
20358,1759
20362,1744
20366,1840
20370,1927
20374,1841
20378,1724
20382,1724
20386,1804
20390,1901
20394,1861
20398,1754
20402,1756
20406,1839
20410,1904
20414,1855
20418,1741
20422,1713
20426,1837
20430,1904
20434,1851
20438,1734
20442,1719
20446,1821
20450,1909
20454,1874
20458,1746
20462,1719
20466,1826
20470,1902
20474,1858
20478,1746
20482,1717
20486,1807
20490,1917
20494,1872
20498,1727
20502,1716
20506,1826
20510,1903
20514,1854
20518,1729
20522,1725
20526,1828
20530,1929
20534,1911
20538,1723
20542,1680
20546,1794
20550,1907
20554,1857
20558,1723
20562,1718
20566,1840
20570,1890
20574,1853
20578,1741
20582,1734
20586,1821
20590,1892
20594,1835
20598,1712
20602,1719
20606,1829
20610,1886
20614,1833
20618,1739
20622,1741
20626,1834
20630,1899
20634,1840
20638,1734
20642,1734
20646,1849
20650,1901
20654,1842
20658,1726
20662,1711
20666,1813
20670,1911
20674,1851
20678,1744
20682,1744
20686,1828
20690,1886
20694,1852
20698,1726
20702,1705
20706,1833
20710,1888
20714,1837
20718,1771
20722,1801
20726,1834
20730,1835
20734,1786
20738,1713
20742,1767
20746,1925
20750,1989
20754,1918
20758,1817
20762,1822
20766,1968
20770,2099
20774,2096
20778,2021
20782,2022
20786,2112
20790,2106
20794,1972
20798,1838
20802,1776
20806,1846
20810,1866
20814,1787
20818,1680
20822,1717
20826,1863
20830,1841
20834,1727
20838,1627
20842,1665
20846,1802
20850,1819
20854,1721
20858,1643
20862,1663
20866,1776
20870,1811
20874,1717
20878,1639
20882,1649
20886,1774
20890,1791
20894,1666
20898,1472
20902,1423
20906,1472
20910,1432
20914,1344
20918,1568
20922,2237
20926,3183
20930,4095
20934,4095
20938,3679
20942,2895
20946,2352
20950,1930
20954,1663
20958,1511
20962,1520
20966,1654
20970,1707
20974,1633
20978,1571
20982,1597
20986,1664
20990,1664
20994,1566
20998,1491
21002,1530
21006,1657
21010,1667
21014,1599
21018,1504
21022,1535
21026,1678
21030,1684
21034,1595
21038,1565
21042,1598
21046,1696
21050,1691
21054,1607
21058,1533
21062,1595
21066,1732
21070,1734
21074,1616
21078,1535
21082,1605
21086,1745
21090,1744
21094,1649
21098,1584
21102,1650
21106,1765
21110,1741
21114,1635
21118,1579
21122,1638
21126,1754
21130,1750
21134,1648
21138,1584
21142,1643
21146,1779
21150,1776
21154,1665
21158,1602
21162,1690
21166,1822
21170,1802
21174,1685
21178,1651
21182,1734
21186,1871
21190,1883
21194,1785
21198,1750
21202,1825
21206,1962
21210,1932
21214,1822
21218,1780
21222,1851
21226,1961
21230,1943
21234,1808
21238,1742
21242,1814
21246,1934
21250,1890
21254,1763
21258,1730
21262,1808
21266,1904
21270,1882
21274,1781
21278,1718
21282,1783
21286,1903
21290,1873
21294,1753
21298,1717
21302,1806
21306,1904
21310,1881
21314,1750
21318,1710
21322,1797
21326,1907
21330,1872
21334,1758
21338,1739
21342,1818
21346,1890
21350,1856
21354,1765
21358,1713
21362,1787
21366,1889
21370,1856
21374,1765
21378,1744
21382,1808
21386,1904
21390,1859
21394,1735
21398,1703
21402,1790
21406,1896
21410,1867
21414,1743
21418,1713
21422,1805
21426,1902
21430,1858
21434,1749
21438,1731
21442,1808
21446,1888
21450,1843
21454,1727
21458,1730
21462,1814
21466,1893
21470,1859
21474,1753
21478,1716
21482,1808
21486,1890
21490,1854
21494,1735
21498,1714
21502,1822
21506,1914
21510,1871
21514,1744
21518,1721
21522,1811
21526,1903
21530,1851
21534,1729
21538,1723
21542,1837
21546,1904
21550,1840
21554,1723
21558,1731
21562,1831
21566,1879
21570,1854
21574,1743
21578,1744
21582,1827
21586,1885
21590,1829
21594,1738
21598,1743
21602,1865
21606,1920
21610,1851
21614,1734
21618,1712
21622,1840
21626,1903
21630,1840
21634,1721
21638,1733
21642,1841
21646,1919
21650,1857
21654,1743
21658,1755
21662,1870
21666,1899
21670,1835
21674,1715
21678,1737
21682,1846
21686,1904
21690,1843
21694,1731
21698,1744
21702,1872
21706,1948
21710,1920
21714,1871
21718,1902
21722,2027
21726,2043
21730,1983
21734,1939
21738,2018
21742,2176
21746,2223
21750,2126
21754,1955
21758,1921
21762,1994
21766,1979
21770,1863
21774,1736
21778,1752
21782,1857
21786,1870
21790,1777
21794,1680
21798,1674
21802,1789
21806,1835
21810,1761
21814,1649
21818,1669
21822,1786
21826,1817
21830,1742
21834,1649
21838,1687
21842,1810
21846,1830
21850,1743
21854,1642
21858,1659
21862,1703
21866,1584
21870,1409
21874,1279
21878,1323
21882,1801
21886,2502
21890,3216
21894,4095
21898,4095
21902,4095
21906,3669
21910,2586
21914,1813
21918,1535
21922,1583
21926,1661
21930,1657
21934,1598
21938,1605
21942,1691
21946,1680
21950,1585
21954,1483
21958,1527
21962,1670
21966,1686
21970,1574
21974,1473
21978,1517
21982,1659
21986,1673
21990,1583
21994,1501
21998,1535
22002,1680
22006,1709
22010,1600
22014,1522
22018,1567
22022,1697
22026,1712
22030,1619
22034,1532
22038,1584
22042,1711
22046,1713
22050,1622
22054,1565
22058,1619
22062,1738
22066,1730
22070,1627
22074,1535
22078,1598
22082,1733
22086,1751
22090,1640
22094,1556
22098,1600
22102,1715
22106,1723
22110,1627
22114,1557
22118,1629
22122,1763
22126,1755
22130,1648
22134,1590
22138,1674
22142,1805
22146,1797
22150,1703
22154,1664
22158,1743
22162,1892
22166,1893
22170,1798
22174,1763
22178,1842
22182,1966
22186,1946
22190,1840
22194,1792
22198,1840
22202,1947
22206,1924
22210,1808
22214,1757
22218,1832
22222,1923
22226,1885
22230,1774
22234,1739
22238,1814
22242,1936
22246,1893
22250,1776
22254,1731
22258,1795
22262,1916
22266,1885
22270,1767
22274,1722
22278,1803
22282,1915
22286,1898
22290,1772
22294,1728
22298,1802
22302,1913
22306,1886
22310,1772
22314,1732
22318,1819
22322,1925
22326,1898
22330,1794
22334,1769
22338,1822
22342,1911
22346,1874
22350,1773
22354,1744
22358,1819
22362,1915
22366,1878
22370,1776
22374,1758
22378,1841
22382,1942
22386,1907
22390,1781
22394,1744
22398,1826
22402,1911
22406,1869
22410,1760
22414,1759
22418,1845
22422,1925
22426,1872
22430,1761
22434,1739
22438,1831
22442,1927
22446,1884
22450,1766
22454,1735
22458,1825
22462,1919
22466,1872
22470,1761
22474,1769
22478,1877
22482,1913
22486,1840
22490,1733
22494,1742
22498,1856
22502,1927
22506,1863
22510,1749
22514,1745
22518,1847
22522,1922
22526,1867
22530,1750
22534,1744
22538,1857
22542,1931
22546,1872
22550,1760
22554,1759
22558,1863
22562,1924
22566,1872
22570,1746
22574,1749
22578,1857
22582,1930
22586,1866
22590,1758
22594,1739
22598,1846
22602,1910
22606,1859
22610,1751
22614,1758
22618,1863
22622,1924
22626,1875
22630,1757
22634,1774
22638,1872
22642,1936
22646,1875
22650,1747
22654,1745
22658,1847
22662,1897
22666,1844
22670,1749
22674,1770
22678,1872
22682,1925
22686,1856
22690,1753
22694,1776
22698,1885
22702,1922
22706,1867
22710,1744
22714,1744
22718,1862
22722,1919
22726,1856
22730,1748
22734,1764
22738,1876
22742,1921
22746,1850
22750,1754
22754,1762
22758,1870
22762,1916
22766,1851
22770,1747
22774,1773
22778,1894
22782,1947
22786,1856
22790,1730
22794,1743
22798,1867
22802,1914
22806,1841
22810,1734
22814,1762
22818,1879
22822,1925
22826,1841
22830,1730
22834,1762
22838,1884
22842,1910
22846,1837
22850,1761
22854,1807
22858,1936
22862,1994
22866,1943
22870,1881
22874,1902
22878,2015
22882,2064
22886,2038
22890,1997
22894,2055
22898,2164
22902,2157
22906,2032
22910,1872
22914,1834
22918,1913
22922,1923
22926,1840
22930,1728
22934,1739
22938,1840
22942,1845
22946,1759
22950,1686
22954,1696
22958,1813
22962,1847
22966,1748
22970,1651
22974,1690
22978,1810
22982,1813
22986,1721
22990,1647
22994,1689
22998,1815
23002,1821
23006,1712
23010,1586
23014,1532
23018,1535
23022,1477
23026,1326
23030,1304
23034,1821
23038,2654
23042,3571
23046,4095
23050,4095
23054,4095
23058,3235
23062,2409
23066,1818
23070,1535
23074,1535
23078,1678
23082,1719
23086,1641
23090,1558
23094,1584
23098,1689
23102,1676
23106,1563
23110,1483
23114,1526
23118,1651
23122,1648
23126,1552
23130,1488
23134,1580
23138,1714
23142,1664
23146,1530
23150,1478
23154,1558
23158,1698
23162,1680
23166,1584
23170,1523
23174,1585
23178,1701
23182,1681
23186,1581
23190,1535
23194,1630
23198,1736
23202,1730
23206,1648
23210,1587
23214,1616
23218,1722
23222,1717
23226,1616
23230,1559
23234,1632
23238,1747
23242,1721
23246,1616
23250,1568
23254,1617
23258,1729
23262,1728
23266,1645
23270,1618
23274,1695
23278,1786
23282,1754
23286,1657
23290,1648
23294,1743
23298,1857
23302,1841
23306,1777
23310,1732
23314,1797
23318,1925
23322,1959
23326,1936
23330,1883
23334,1995
23338,2173
23342,2135
23346,1999
23350,1983
23354,2130
23358,2273
23362,2187
23366,2026
23370,1861
23374,1743
23378,1702
23382,1666
23386,1616
23390,1631
23394,1741
23398,1846
23402,1831
23406,1730
23410,1719
23414,1813
23418,1930
23422,1898
23426,1791
23430,1758
23434,1835
23438,1926
23442,1909
23446,1818
23450,1825
23454,1930
23458,1995
23462,1998
23466,1915
23470,1840
23474,1890
23478,1902
23482,1808
23486,1682
23490,1680
23494,1798
23498,1909
23502,1857
23506,1725
23510,1731
23514,1817
23518,1906
23522,1908
23526,1793
23530,1755
23534,1823
23538,1926
23542,1974
23546,1885
23550,1806
23554,1792
23558,1803
23562,1757
23566,1702
23570,1743
23574,1819
23578,1840
23582,1744
23586,1632
23590,1658
23594,1809
23598,1926
23602,1861
23606,1726
23610,1712
23614,1847
23618,1957
23622,1950
23626,1798
23630,1691
23634,1724
23638,1699
23642,1692
23646,1719
23650,1767
23654,1827
23658,1819
23662,1697
23666,1531
23670,1601
23674,1829
23678,1936
23682,1807
23686,1602
23690,1583
23694,1717
23698,1823
23702,1808
23706,1682
23710,1695
23714,1851
23718,1869
23722,1751
23726,1615
23730,1606
23734,1712
23738,1778
23742,1710
23746,1614
23750,1628
23754,1733
23758,1764
23762,1712
23766,1606
23770,1616
23774,1733
23778,1799
23782,1751
23786,1649
23790,1728
23794,1893
23798,1911
23802,1738
23806,1568
23810,1671
23814,1894
23818,1919
23822,1726
23826,1535
23830,1665
23834,1899
23838,1936
23842,1827
23846,1695
23850,1754
23854,1943
23858,2043
23862,2011
23866,1917
23870,1999
23874,2166
23878,2174
23882,2018
23886,1820
23890,1773
23894,1840
23898,1821
23902,1695
23906,1595
23910,1652
23914,1803
23918,1795
23922,1693
23926,1584
23930,1570
23934,1694
23938,1805
23942,1763
23946,1616
23950,1597
23954,1701
23958,1746
23962,1678
23966,1607
23970,1641
23974,1774
23978,1809
23982,1670
23986,1523
23990,1504
23994,1535
23998,1535
24002,1453
24006,1251
24010,1392
24014,2124
24018,2914
24022,3921
24026,4095
24030,4095
24034,4095
24038,2989
24042,1995
24046,1479
24050,1424
24054,1570
24058,1684
24062,1706
24066,1630
24070,1584
24074,1668
24078,1671
24082,1535
24086,1509
24090,1606
24094,1757
24098,1744
24102,1567
24106,1406
24110,1392
24114,1522
24118,1602
24122,1574
24126,1534
24130,1607
24134,1712
24138,1712
24142,1629
24146,1526
24150,1535
24154,1740
24158,1827
24162,1701
24166,1535
24170,1569
24174,1665
24178,1683
24182,1654
24186,1599
24190,1589
24194,1671
24198,1670
24202,1594
24206,1570
24210,1671
24214,1815
24218,1791
24222,1648
24226,1619
24230,1705
24234,1786
24238,1727
24242,1667
24246,1664
24250,1703
24254,1780
24258,1757
24262,1631
24266,1603
24270,1715
24274,1859
24278,1834
24282,1744
24286,1744
24290,1814
24294,1931
24298,1915
24302,1841
24306,1849
24310,1995
24314,2142
24318,2072
24322,1949
24326,1859
24330,1825
24334,1891
24338,1874
24342,1784
24346,1774
24350,1838
24354,1919
24358,1883
24362,1827
24366,1805
24370,1812
24374,1873
24378,1866
24382,1783
24386,1779
24390,1890
24394,1989
24398,1925
24402,1854
24406,1846
24410,1843
24414,1837
24418,1778
24422,1722
24426,1751
24430,1856
24434,1984
24438,2013
24442,1911
24446,1788
24450,1773
24454,1837
24458,1808
24462,1728
24466,1781
24470,1927
24474,1969
24478,1877
24482,1733
24486,1743
24490,1916
24494,2071
24498,1968
24502,1774
24506,1729
24510,1819
24514,1931
24518,1901
24522,1801
24526,1785
24530,1927
24534,2015
24538,1893
24542,1748
24546,1719
24550,1873
24554,1987
24558,1852
24562,1665
24566,1678
24570,1856
24574,1973
24578,1917
24582,1829
24586,1845
24590,1895
24594,1920
24598,1815
24602,1675
24606,1783
24610,1987
24614,2017
24618,1841
24622,1690
24626,1695
24630,1813
24634,1917
24638,1939
24642,1846
24646,1754
24650,1779
24654,1855
24658,1839
24662,1713
24666,1730
24670,1936
24674,2093
24678,1958
24682,1695
24686,1641
24690,1776
24694,1931
24698,1915
24702,1750
24706,1665
24710,1741
24714,1840
24718,1840
24722,1792
24726,1798
24730,1847
24734,1862
24738,1792
24742,1699
24746,1790
24750,1938
24754,1985
24758,1857
24762,1689
24766,1687
24770,1830
24774,1928
24778,1899
24782,1772
24786,1713
24790,1787
24794,1897
24798,1840
24802,1728
24806,1775
24810,1875
24814,1893
24818,1835
24822,1750
24826,1740
24830,1840
24834,1954
24838,1921
24842,1757
24846,1739
24850,1900
24854,1953
24858,1836
24862,1677
24866,1634
24870,1771
24874,1879
24878,1867
24882,1819
24886,1915
24890,2147
24894,2235
24898,2032
24902,1825
24906,1892
24910,2160
24914,2288
24918,2195
24922,2003
24926,1918
24930,1957
24934,1997
24938,1872
24942,1711
24946,1712
24950,1839
24954,1878
24958,1910
24962,1919
24966,1792
24970,1683
24974,1648
24978,1638
24982,1659
24986,1792
24990,1942
24994,1862
24998,1602
25002,1489
25006,1627
25010,1776
25014,1772
25018,1693
25022,1620
25026,1697
25030,1793
25034,1706
25038,1529
25042,1323
25046,1253
25050,1396
25054,1811
25058,2475
25062,3313
25066,4095
25070,4095
25074,4095
25078,3431
25082,2439
25086,1867
25090,1681
25094,1562
25098,1535
25102,1567
25106,1650
25110,1774
25114,1788
25118,1617
25122,1455
25126,1525
25130,1731
25134,1717
25138,1526
25142,1424
25146,1487
25150,1646
25154,1691
25158,1617
25162,1533
25166,1535
25170,1662
25174,1726
25178,1600
25182,1469
25186,1511
25190,1669
25194,1680
25198,1609
25202,1591
25206,1682
25210,1770
25214,1697
25218,1597
25222,1562
25226,1681
25230,1797
25234,1687
25238,1527
25242,1478
25246,1582
25250,1744
25254,1731
25258,1655
25262,1634
25266,1727
25270,1854
25274,1744
25278,1515
25282,1461
25286,1572
25290,1751
25294,1812
25298,1749
25302,1665
25306,1680
25310,1819
25314,1852
25318,1723
25322,1644
25326,1685
25330,1820
25334,1873
25338,1819
25342,1739
25346,1819
25350,2013
25354,2031
25358,1904
25362,1782
25366,1785
25370,1856
25374,1858
25378,1915
25382,1933
25386,1851
25390,1788
25394,1775
25398,1841
25402,1845
25406,1771
25410,1755
25414,1722
25418,1667
25422,1681
25426,1811
25430,1955
25434,1959
25438,1929
25442,1858
25446,1760
25450,1829
25454,1878
25458,1729
25462,1606
25466,1673
25470,1834
25474,1869
25478,1808
25482,1765
25486,1808
25490,1856
25494,1819
25498,1777
25502,1827
25506,1872
25510,1904
25514,1906
25518,1785
25522,1666
25526,1706
25530,1846
25534,1904
25538,1801
25542,1701
25546,1779
25550,1922
25554,1856
25558,1710
25562,1771
25566,1895
25570,1891
25574,1770
25578,1682
25582,1711
25586,1834
25590,1985
25594,1950
25598,1731
25602,1607
25606,1679
25610,1813
25614,1878
25618,1874
25622,1866
25626,1903
25630,1890
25634,1760
25638,1664
25642,1695
25646,1819
25650,1919
25654,1856
25658,1819
25662,1841
25666,1872
25670,1799
25674,1780
25678,1757
25682,1699
25686,1714
25690,1797
25694,1872
25698,1915
25702,1859
25706,1771
25710,1793
25714,1827
25718,1766
25722,1758
25726,1840
25730,1854
25734,1846
25738,1947
25742,1950
25746,1843
25750,1691
25754,1613
25758,1577
25762,1742
25766,2002
25770,2018
25774,1798
25778,1610
25782,1658
25786,1819
25790,1926
25794,1855
25798,1719
25802,1759
25806,1975
25810,1991
25814,1840
25818,1715
25822,1733
25826,1855
25830,1931
25834,1910
25838,1800
25842,1731
25846,1764
25850,1808
25854,1769
25858,1689
25862,1785
25866,1936
25870,2011
25874,1917
25878,1806
25882,1872
25886,1967
25890,1879
25894,1744
25898,1661
25902,1749
25906,1872
25910,1858
25914,1776
25918,1743
25922,1801
25926,1936
25930,1992
25934,1868
25938,1746
25942,1818
25946,1936
25950,1911
25954,1858
25958,1816
25962,1803
25966,1843
25970,1808
25974,1774
25978,1744
25982,1861
25986,2080
25990,2139
25994,1968
25998,1776
26002,1808
26006,2022
26010,2154
26014,2156
26018,2128
26022,2185
26026,2224
26030,2134
26034,1965
26038,1834
26042,1803
26046,1911
26050,1945
26054,1815
26058,1685
26062,1735
26066,1907
26070,1925
26074,1745
26078,1617
26082,1683
26086,1856
26090,1907
26094,1808
26098,1702
26102,1733
26106,1811
26110,1815
26114,1744
26118,1600
26122,1591
26126,1741
26130,1792
26134,1643
26138,1466
26142,1395
26146,1484
26150,1626
26154,1779
26158,2094
26162,2687
26166,3738
26170,4095
26174,4095
26178,3410
26182,2581
26186,2031
26190,1763
26194,1696
26198,1614
26202,1525
26206,1584
26210,1602
26214,1535
26218,1488
26222,1558
26226,1728
26230,1744
26234,1619
26238,1554
26242,1584
26246,1643
26250,1648
26254,1562
26258,1432
26262,1449
26266,1631
26270,1650
26274,1535
26278,1447
26282,1532
26286,1674
26290,1653
26294,1577
26298,1600
26302,1706
26306,1769
26310,1715
26314,1575
26318,1500
26322,1648
26326,1785
26330,1666
26334,1489
26338,1463
26342,1584
26346,1735
26350,1735
26354,1616
26358,1535
26362,1633
26366,1744
26370,1729
26374,1664
26378,1639
26382,1657
26386,1740
26390,1762
26394,1755
26398,1744
26402,1678
26406,1683
26410,1715
26414,1693
26418,1653
26422,1726
26426,1855
26430,1856
26434,1760
26438,1744
26442,1859
26446,2043
26450,2100
26454,1958
26458,1799
26462,1795
26466,1936
26470,1962
26474,1825
26478,1786
26482,1853
26486,1938
26490,1858
26494,1697
26498,1706
26502,1840
26506,1904
26510,1818
26514,1695
26518,1617
26522,1711
26526,1829
26530,1834
26534,1759
26538,1747
26542,1889
26546,2047
26550,1925
26554,1711
26558,1642
26562,1725
26566,1885
26570,1905
26574,1745
26578,1701
26582,1821
26586,1971
26590,1883
26594,1723
26598,1707
26602,1808
26606,1919
26610,1861
26614,1741
26618,1766
26622,1881
26626,1923
26630,1843
26634,1808
26638,1861
26642,1840
26646,1792
26650,1741
26654,1714
26658,1749
26662,1850
26666,1969
26670,1890
26674,1711
26678,1680
26682,1854
26686,1965
26690,1904
26694,1758
26698,1668
26702,1747
26706,1846
26710,1855
26714,1842
26718,1862
26722,1895
26726,1904
26730,1782
26734,1683
26738,1731
26742,1823
26746,1851
26750,1797
26754,1712
26758,1712
26762,1785
26766,1867
26770,1858
26774,1770
26778,1779
26782,1889
26786,1955
26790,1861
26794,1753
26798,1731
26802,1799
26806,1872
26810,1785
26814,1648
26818,1663
26822,1824
26826,1937
26830,1872
26834,1731
26838,1728
26842,1861
26846,2032
26850,1962
26854,1743
26858,1712
26862,1839
26866,1883
26870,1806
26874,1703
26878,1783
26882,1979
26886,1967
26890,1712
26894,1531
26898,1645
26902,1827
26906,1904
26910,1815
26914,1726
26918,1779
26922,1946
26926,2000
26930,1846
26934,1678
26938,1707
26942,1855
26946,1919
26950,1840
26954,1707
26958,1702
26962,1808
26966,1882
26970,1815
26974,1749
26978,1821
26982,1872
26986,1801
26990,1683
26994,1635
26998,1763
27002,1936
27006,1981
27010,1877
27014,1718
27018,1767
27022,1969
27026,1965
27030,1745
27034,1567
27038,1629
27042,1815
27046,1929
27050,1891
27054,1732
27058,1711
27062,1902
27066,2061
27070,2000
27074,1823
27078,1803
27082,1930
27086,2019
27090,2063
27094,2064
27098,2107
27102,2207
27106,2224
27110,2054
27114,1856
27118,1843
27122,1962
27126,1936
27130,1799
27134,1658
27138,1653
27142,1747
27146,1810
27150,1775
27154,1689
27158,1698
27162,1761
27166,1776
27170,1728
27174,1683
27178,1723
27182,1805
27186,1840
27190,1729
27194,1594
27198,1635
27202,1771
27206,1779
27210,1675
27214,1502
27218,1421
27222,1495
27226,1520
27230,1402
27234,1641
27238,2413
27242,3461
27246,4095
27250,4095
27254,4095
27258,3427
27262,2537
27266,1941
27270,1634
27274,1456
27278,1520
27282,1753
27286,1821
27290,1670
27294,1520
27298,1581
27302,1680
27306,1607
27310,1466
27314,1407
27318,1519
27322,1681
27326,1671
27330,1562
27334,1535
27338,1598
27342,1659
27346,1669
27350,1633
27354,1535
27358,1506
27362,1597
27366,1628
27370,1563
27374,1520
27378,1613
27382,1745
27386,1727
27390,1619
27394,1559
27398,1609
27402,1722
27406,1729
27410,1655
27414,1535
27418,1578
27422,1701
27426,1710
27430,1651
27434,1602
27438,1638
27442,1745
27446,1759
27450,1632
27454,1525
27458,1563
27462,1690
27466,1729
27470,1673
27474,1641
27478,1684
27482,1779
27486,1761
27490,1670
27494,1623
27498,1725
27502,1872
27506,1872
27510,1780
27514,1728
27518,1795
27522,1920
27526,1927
27530,1843
27534,1803
27538,1859
27542,1962
27546,1924
27550,1808
27554,1750
27558,1813
27562,1927
27566,1890
27570,1766
27574,1713
27578,1775
27582,1860
27586,1811
27590,1711
27594,1678
27598,1744
27602,1840
27606,1797
27610,1698
27614,1663
27618,1744
27622,1849
27626,1800
27630,1693
27634,1658
27638,1728
27642,1831
27646,1806
27650,1709
27654,1653
27658,1713
27662,1818
27666,1792
27670,1667
27674,1638
27678,1713
27682,1823
27686,1799
27690,1693
27694,1648
27698,1709
27702,1809
27706,1789
27710,1692
27714,1669
27718,1750
27722,1840
27726,1796
27730,1687
27734,1656
27738,1733
27742,1841
27746,1809
27750,1703
27754,1669
27758,1741
27762,1847
27766,1827
27770,1707
27774,1665
27778,1742
27782,1845
27786,1814
27790,1712
27794,1683
27798,1753
27802,1847
27806,1823
27810,1708
27814,1680
27818,1765
27822,1863
27826,1829
27830,1721
27834,1703
27838,1786
27842,1890
27846,1840
27850,1719
27854,1702
27858,1794
27862,1899
27866,1865
27870,1739
27874,1719
27878,1821
27882,1897
27886,1839
27890,1727
27894,1717
27898,1818
27902,1912
27906,1871
27910,1766
27914,1744
27918,1825
27922,1911
27926,1867
27930,1753
27934,1744
27938,1838
27942,1925
27946,1874
27950,1762
27954,1755
27958,1849
27962,1944
27966,1879
27970,1753
27974,1744
27978,1840
27982,1923
27986,1888
27990,1776
27994,1766
27998,1855
28002,1925
28006,1878
28010,1776
28014,1781
28018,1873
28022,1926
28026,1865
28030,1769
28034,1775
28038,1863
28042,1945
28046,1920
28050,1841
28054,1873
28058,1992
28062,2064
28066,2000
28070,1921
28074,1982
28078,2144
28082,2246
28086,2226
28090,2094
28094,2002
28098,2043
28102,2054
28106,1934
28110,1778
28114,1767
28118,1857
28122,1905
28126,1836
28130,1715
28134,1713
28138,1799
28142,1839
28146,1771
28150,1669
28154,1680
28158,1776
28162,1831
28166,1776
28170,1675
28174,1681
28178,1779
28182,1839
28186,1780
28190,1666
28194,1632
28198,1637
28202,1586
28206,1455
28210,1307
28214,1328
28218,1744
28222,2423
28226,3175
28230,4095
28234,4095
28238,4095
28242,3451
28246,2485
28250,1792
28254,1592
28258,1648
28262,1689
28266,1653
28270,1587
28274,1621
28278,1728
28282,1733
28286,1622
28290,1500
28294,1522
28298,1647
28302,1689
28306,1616
28310,1518
28314,1554
28318,1650
28322,1682
28326,1606
28330,1511
28334,1535
28338,1671
28342,1717
28346,1643
28350,1532
28354,1569
28358,1689
28362,1731
28366,1664
28370,1569
28374,1593
28378,1709
28382,1746
28386,1670
28390,1586
28394,1616
28398,1727
28402,1757
28406,1680
28410,1588
28414,1623
28418,1744
28422,1776
28426,1687
28430,1591
28434,1616
28438,1741
28442,1766
28446,1682
28450,1602
28454,1637
28458,1749
28462,1783
28466,1716
28470,1647
28474,1693
28478,1821
28482,1854
28486,1781
28490,1719
28494,1765
28498,1893
28502,1934
28506,1866
28510,1805
28514,1847
28518,1963
28522,1969
28526,1899
28530,1802
28534,1819
28538,1936
28542,1941
28546,1855
28550,1767
28554,1797
28558,1904
28562,1906
28566,1819
28570,1744
28574,1785
28578,1890
28582,1901
28586,1808
28590,1760
28594,1797
28598,1885
28602,1888
28606,1802
28610,1740
28614,1787
28618,1902
28622,1904
28626,1835
28630,1749
28634,1778
28638,1895
28642,1895
28646,1806
28650,1742
28654,1793
28658,1904
28662,1904
28666,1811
28670,1740
28674,1786
28678,1898
28682,1905
28686,1822
28690,1733
28694,1774
28698,1891
28702,1906
28706,1810
28710,1729
28714,1769
28718,1883
28722,1887
28726,1793
28730,1733
28734,1790
28738,1919
28742,1911
28746,1802
28750,1740
28754,1787
28758,1904
28762,1902
28766,1793
28770,1729
28774,1788
28778,1897
28782,1893
28786,1794
28790,1737
28794,1792
28798,1909
28802,1904
28806,1794
28810,1744
28814,1799
28818,1904
28822,1889
28826,1793
28830,1734
28834,1788
28838,1904
28842,1893
28846,1792
28850,1739
28854,1804
28858,1904
28862,1903
28866,1814
28870,1732
28874,1776
28878,1885
28882,1873
28886,1783
28890,1745
28894,1797
28898,1903
28902,1881
28906,1780
28910,1744
28914,1807
28918,1907
28922,1877
28926,1775
28930,1745
28934,1808
28938,1911
28942,1882
28946,1779
28950,1738
28954,1807
28958,1911
28962,1889
28966,1783
28970,1747
28974,1820
28978,1920
28982,1895
28986,1791
28990,1744
28994,1830
28998,1909
29002,1897
29006,1782
29010,1757
29014,1825
29018,1927
29022,1895
29026,1786
29030,1747
29034,1827
29038,1919
29042,1894
29046,1789
29050,1760
29054,1837
29058,1925
29062,1901
29066,1791
29070,1776
29074,1893
29078,2032
29082,2022
29086,1904
29090,1884
29094,1984
29098,2143
29102,2157
29106,2082
29110,2068
29114,2113
29118,2155
29122,2042
29126,1877
29130,1806
29134,1853
29138,1936
29142,1876
29146,1744
29150,1707
29154,1781
29158,1861
29162,1808
29166,1697
29170,1671
29174,1747
29178,1837
29182,1789
29186,1669
29190,1658
29194,1756
29198,1839
29202,1787
29206,1675
29210,1653
29214,1729
29218,1757
29222,1593
29226,1353
29230,1265
29234,1325
29238,1473
29242,1906
29246,2535
29250,3436
29254,4095
29258,4095
29262,4095
29266,3088
29270,2257
29274,1843
29278,1744
29282,1625
29286,1520
29290,1535
29294,1653
29298,1719
29302,1648
29306,1508
29310,1486
29314,1583
29318,1657
29322,1610
29326,1488
29330,1475
29334,1570
29338,1651
29342,1605
29346,1493
29350,1494
29354,1597
29358,1669
29362,1617
29366,1505
29370,1511
29374,1613
29378,1685
29382,1639
29386,1531
29390,1522
29394,1618
29398,1698
29402,1653
29406,1535
29410,1555
29414,1651
29418,1722
29422,1675
29426,1572
29430,1555
29434,1646
29438,1702
29442,1658
29446,1566
29450,1558
29454,1649
29458,1708
29462,1653
29466,1567
29470,1580
29474,1680
29478,1737
29482,1677
29486,1588
29490,1616
29494,1727
29498,1787
29502,1751
29506,1664
29510,1690
29514,1797
29518,1867
29522,1825
29526,1744
29530,1776
29534,1904
29538,1973
29542,1904
29546,1810
29550,1813
29554,1917
29558,1967
29562,1894
29566,1792
29570,1796
29574,1879
29578,1926
29582,1857
29586,1749
29590,1744
29594,1846
29598,1904
29602,1830
29606,1733
29610,1761
29614,1859
29618,1888
29622,1831
29626,1721
29630,1744
29634,1851
29638,1889
29642,1821
29646,1727
29650,1735
29654,1843
29658,1885
29662,1813
29666,1722
29670,1729
29674,1838
29678,1879
29682,1810
29686,1715
29690,1744
29694,1857
29698,1901
29702,1818
29706,1722
29710,1743
29714,1855
29718,1888
29722,1808
29726,1715
29730,1744
29734,1857
29738,1889
29742,1815
29746,1725
29750,1749
29754,1855
29758,1879
29762,1810
29766,1717
29770,1739
29774,1852
29778,1886
29782,1807
29786,1723
29790,1757
29794,1861
29798,1895
29802,1809
29806,1727
29810,1755
29814,1856
29818,1874
29822,1796
29826,1723
29830,1758
29834,1872
29838,1894
29842,1807
29846,1727
29850,1744
29854,1859
29858,1879
29862,1792
29866,1715
29870,1751
29874,1863
29878,1885
29882,1808
29886,1719
29890,1744
29894,1878
29898,1903
29902,1802
29906,1709
29910,1745
29914,1874
29918,1897
29922,1809
29926,1725
29930,1750
29934,1855
29938,1877
29942,1798
29946,1726
29950,1783
29954,1919
29958,1947
29962,1881
29966,1825
29970,1872
29974,1987
29978,2005
29982,1966
29986,1947
29990,2054
29994,2224
29998,2243
30002,2128
30006,2001
30010,2000
